,Date,Adj Close,daily_return
0,2017-01-03,66.14826202392578,
1,2017-01-04,67.24439239501953,0.016570811349469583
2,2017-01-05,66.55591583251953,-0.010238423428017951
3,2017-01-06,66.58305358886719,0.0004077437145624252
4,2017-01-09,66.74613189697266,0.002449246457100651
5,2017-01-10,65.96707153320312,-0.011671992692731115
6,2017-01-11,66.16637420654297,0.0030212448227222577
7,2017-01-12,66.42904663085938,0.003969877864192117
8,2017-01-13,66.58305358886719,0.00231836772946048
9,2017-01-17,66.43812561035156,-0.0021766496233488475
10,2017-01-18,66.5649642944336,0.0019091249627649631
11,2017-01-19,65.88555145263672,-0.010206763407723973
12,2017-01-20,64.89810180664062,-0.014987347365620018
13,2017-01-23,65.63190460205078,0.011306999357184155
14,2017-01-24,66.61933898925781,0.015045036300473047
15,2017-01-25,66.5196762084961,-0.001496003747166963
16,2017-01-26,66.42000579833984,-0.0014983598212933158
17,2017-01-27,66.52872467041016,0.001636839243892796
18,2017-01-30,66.18296813964844,-0.0051971014396356985
19,2017-01-31,66.39224243164062,0.0031620566117647186
20,2017-02-01,67.27479553222656,0.01329301539249328
21,2017-02-02,66.71978759765625,-0.008249864309204047
22,2017-02-03,67.12924194335938,0.006136925197848031
23,2017-02-06,66.73799133300781,-0.005828318613841699
24,2017-02-07,66.17388153076172,-0.00845260384645552
25,2017-02-08,66.9199447631836,0.011274285490946445
26,2017-02-09,66.93815612792969,0.00027213657767566346
27,2017-02-10,68.04817962646484,0.016582821558659644
28,2017-02-13,67.72064971923828,-0.004813206011159532
29,2017-02-14,67.17471313476562,-0.008061596968369944
30,2017-02-15,66.60150146484375,-0.008533146524524748
31,2017-02-16,67.5113754272461,0.01366146321615025
32,2017-02-17,67.23841094970703,-0.004043236799896377
33,2017-02-21,67.86618041992188,0.009336470944924624
34,2017-02-22,67.56597137451172,-0.004423544150453318
35,2017-02-23,67.43858337402344,-0.0018853869469614981
36,2017-02-24,67.65694427490234,0.003237922417021144
37,2017-02-27,67.76612854003906,0.0016137924392960468
38,2017-02-28,67.79341888427734,0.000402713639191532
39,2017-03-01,69.20367431640625,0.020802246815965875
40,2017-03-02,68.97623443603516,-0.0032865289685518606
41,2017-03-03,69.1855239868164,0.003034226969512721
42,2017-03-06,68.83067321777344,-0.00512897422169678
43,2017-03-07,68.6668930053711,-0.002379465502017619
44,2017-03-08,69.0945053100586,0.006227343133961893
45,2017-03-09,69.01262664794922,-0.0011850242178006454
46,2017-03-10,69.86791229248047,0.012393176235622416
47,2017-03-13,69.83151245117188,-0.0005209808067001553
48,2017-03-14,69.63134002685547,-0.0028665056403636147
49,2017-03-15,70.27734375,0.009277485151016451
50,2017-03-16,70.04078674316406,-0.0033660493441165507
51,2017-03-17,70.1317367553711,0.0012985292775271606
52,2017-03-20,70.82322692871094,0.009859875219572212
53,2017-03-21,69.84968566894531,-0.013746073173784734
54,2017-03-22,69.92250061035156,0.0010424519553511313
55,2017-03-23,70.2045669555664,0.00403398538028088
56,2017-03-24,69.71322631835938,-0.006998699066372849
57,2017-03-27,69.71322631835938,0.0
58,2017-03-28,70.12266540527344,0.005873190907049297
59,2017-03-29,70.0953598022461,-0.00038939767719226026
60,2017-03-30,69.93158721923828,-0.0023364254562620035
61,2017-03-31,70.04988098144531,0.0016915640972965384
62,2017-04-03,69.55854797363281,-0.007014044862440838
63,2017-04-04,69.82240295410156,0.003793279016818474
64,2017-04-05,69.22190856933594,-0.00860031106578163
65,2017-04-06,69.63134002685547,0.005914766957189954
66,2017-04-07,69.29470825195312,-0.004834486522484194
67,2017-04-10,69.95886993408203,0.009584594536627966
68,2017-04-11,69.98617553710938,0.00039030937825423884
69,2017-04-12,69.35839080810547,-0.00897012480230519
70,2017-04-13,68.96714782714844,-0.005640888959484225
71,2017-04-17,70.30463409423828,0.019393092352346875
72,2017-04-18,70.57757568359375,0.0038822702496339456
73,2017-04-19,70.55938720703125,-0.0002577090015678518
74,2017-04-20,70.8050537109375,0.003481698376793352
75,2017-04-21,70.95970153808594,0.0021841354401026525
76,2017-04-24,71.24176788330078,0.00397502158409524
77,2017-04-25,71.63301086425781,0.005491764067364402
78,2017-04-26,72.18802642822266,0.007748041821340923
79,2017-04-27,71.68762969970703,-0.006931852182067599
80,2017-04-28,73.06149291992188,0.01916457868630661
81,2017-05-01,72.83311462402344,-0.003125836699624407
82,2017-05-02,73.26245880126953,0.0058949034304305314
83,2017-05-03,73.49085998535156,0.0031175746462672738
84,2017-05-04,74.34954071044922,0.011684183928025949
85,2017-05-05,74.82452392578125,0.00638851579704891
86,2017-05-08,75.37264251708984,0.007325386952709234
87,2017-05-09,75.3452377319336,-0.0003635906111429943
88,2017-05-10,75.70149993896484,0.004728397145666641
89,2017-05-11,75.39091491699219,-0.004102759155671487
90,2017-05-12,75.299560546875,-0.0012117424256991027
91,2017-05-15,75.48226165771484,0.0024263237330064413
92,2017-05-16,75.62841033935547,0.0019361990278372598
93,2017-05-17,75.16252899169922,-0.006160136720655296
94,2017-05-18,75.0346450805664,-0.0017014317220078734
95,2017-05-19,75.23560333251953,0.002678206203778899
96,2017-05-22,75.67408752441406,0.005828147479014056
97,2017-05-23,75.99382019042969,0.00422512747064796
98,2017-05-24,76.176513671875,0.0024040570797403404
99,2017-05-25,76.87078094482422,0.009113928158221096
100,2017-05-26,77.07176208496094,0.0026145323055970504
101,2017-05-30,77.22704315185547,0.0020147595266259977
102,2017-05-31,77.65637969970703,0.0055594067871709285
103,2017-06-01,78.79824829101562,0.014704118267219402
104,2017-06-02,78.86219787597656,0.0008115609972034754
105,2017-06-05,78.42372131347656,-0.005560034773435696
106,2017-06-06,78.08573913574219,-0.004309693190704178
107,2017-06-07,78.27754974365234,0.0024564102233406437
108,2017-06-08,77.8756103515625,-0.005134797823975523
109,2017-06-09,78.24103546142578,0.004692420492290239
110,2017-06-12,78.04920196533203,-0.002451827164127063
111,2017-06-13,78.72516632080078,0.008660746534846053
112,2017-06-14,78.78912353515625,0.0008124112954535079
113,2017-06-15,78.77084350585938,-0.00023201209096734843
114,2017-06-16,78.51508331298828,-0.0032468890961167007
115,2017-06-19,79.24588012695312,0.009307725129089395
116,2017-06-20,79.37376403808594,0.0016137610047102235
117,2017-06-21,79.47425079345703,0.00126599458383847
118,2017-06-22,79.309814453125,-0.0020690517833176214
119,2017-06-23,79.29155731201172,-0.00023020027520137543
120,2017-06-26,79.60213470458984,0.003916903679366479
121,2017-06-27,78.89874267578125,-0.008836346304266107
122,2017-06-28,79.41029357910156,0.006483638217435583
123,2017-06-29,79.00836181640625,-0.005061456702649569
124,2017-06-30,79.34634399414062,0.004277802627014937
125,2017-07-03,79.54732513427734,0.002532960310705157
126,2017-07-05,79.73916625976562,0.0024116602935981835
127,2017-07-06,79.75743103027344,0.00022905645198645352
128,2017-07-07,80.46993255615234,0.008933356010532245
129,2017-07-10,80.66179656982422,0.0023842944510732433
130,2017-07-11,80.54302978515625,-0.0014724044060332453
131,2017-07-12,81.2829818725586,0.009187040633759747
132,2017-07-13,80.96324157714844,-0.00393366837736675
133,2017-07-14,81.69403076171875,0.009026184850491115
134,2017-07-17,82.02289581298828,0.0040255701451279435
135,2017-07-18,81.97721099853516,-0.0005569763661756877
136,2017-07-19,82.29695129394531,0.0039003558612877853
137,2017-07-20,81.94068145751953,-0.004329076968516921
138,2017-07-21,81.76713562011719,-0.002117944765840374
139,2017-07-24,82.0146484375,0.0030270452242908696
140,2017-07-25,81.3087387084961,-0.00860711766071709
141,2017-07-26,80.73116302490234,-0.007103488416717929
142,2017-07-27,80.6761703491211,-0.0006811827517496649
143,2017-07-28,75.45974731445312,-0.06465878353043064
144,2017-07-31,74.19454956054688,-0.016766525186387993
145,2017-08-01,75.64308166503906,0.019523430131617836
146,2017-08-02,75.40470123291016,-0.0031513844608354047
147,2017-08-03,75.40470123291016,0.0
148,2017-08-04,75.50553131103516,0.0013371855663688592
149,2017-08-07,75.85391998291016,0.004614081456361996
150,2017-08-08,75.85391998291016,0.0
151,2017-08-09,75.61556243896484,-0.003142323349920706
152,2017-08-10,74.7262954711914,-0.011760369679075455
153,2017-08-11,75.3038558959961,0.00772901187142816
154,2017-08-14,76.00978088378906,0.009374353801589352
155,2017-08-15,75.86309051513672,-0.0019298880610723046
156,2017-08-16,76.59648895263672,0.009667394677964847
157,2017-08-17,75.29468536376953,-0.01699560393260524
158,2017-08-18,75.3130111694336,0.0002433877713350352
159,2017-08-21,74.70795440673828,-0.008033894187740032
160,2017-08-22,75.28553771972656,0.007731215739674724
161,2017-08-23,74.81794738769531,-0.006210891841830213
162,2017-08-24,74.33209991455078,-0.00649372897958489
163,2017-08-25,75.53305053710938,0.01615655448909914
164,2017-08-28,75.04714965820312,-0.006432957168432174
165,2017-08-29,75.1755142211914,0.001710452210015978
166,2017-08-30,76.06475830078125,0.011828905845238324
167,2017-08-31,76.65151977539062,0.0077139727742137065
168,2017-09-01,76.8990478515625,0.0032292650804210954
169,2017-09-05,76.32147979736328,-0.007510730891156059
170,2017-09-06,75.95478057861328,-0.004804665996042012
171,2017-09-07,76.65151977539062,0.009173078922349198
172,2017-09-08,76.84402465820312,0.0025114294325356834
173,2017-09-11,78.03585815429688,0.015509774525669817
174,2017-09-12,78.10917663574219,0.0009395486021355204
175,2017-09-13,77.46744537353516,-0.008215824181577402
176,2017-09-14,77.8066635131836,0.004378847630934324
177,2017-09-15,77.65999603271484,-0.0018850246732903253
178,2017-09-18,78.32923126220703,0.008617502751484318
179,2017-09-19,78.43923950195312,0.0014044340532060051
180,2017-09-20,78.95262145996094,0.0065449634808740775
181,2017-09-21,78.98011779785156,0.00034826377366803385
182,2017-09-22,78.58589172363281,-0.004991459688978517
183,2017-09-25,79.53936004638672,0.012132818014040314
184,2017-09-26,79.53018188476562,-0.00011539144413208469
185,2017-09-27,79.33769226074219,-0.002420334261304058
186,2017-09-28,79.83271789550781,0.006239476100952546
187,2017-09-29,79.12681579589844,-0.008842265655208181
188,2017-10-02,80.56611633300781,0.018189794731813036
189,2017-10-03,81.07035064697266,0.006258639945863509
190,2017-10-04,80.80451965332031,-0.003279016206676144
191,2017-10-05,80.80451965332031,0.0
192,2017-10-06,81.20787811279297,0.004991780920216016
193,2017-10-09,81.09786224365234,-0.001354743796997404
194,2017-10-10,81.10704040527344,0.0001131739033208845
195,2017-10-11,81.00618743896484,-0.0012434551403263105
196,2017-10-12,81.12537384033203,0.0014713246621684828
197,2017-10-13,81.44624328613281,0.003955229179372521
198,2017-10-16,81.5379409790039,0.0011258676787453403
199,2017-10-17,81.57457733154297,0.0004493166260906012
200,2017-10-18,81.22621154785156,-0.004270519015692198
201,2017-10-19,81.26288604736328,0.0004515106492455345
202,2017-10-20,81.77627563476562,0.00631763911391392
203,2017-10-23,81.62043762207031,-0.00190566287698557
204,2017-10-24,81.70296478271484,0.001011109019369183
205,2017-10-25,81.12537384033203,-0.007069400038528406
206,2017-10-26,81.5379409790039,0.005085549922813071
207,2017-10-27,80.61197662353516,-0.011356239124399647
208,2017-10-30,79.26434326171875,-0.016717532781883926
209,2017-10-31,80.1200942993164,0.010796166376753957
210,2017-11-01,80.43297576904297,0.003905156034361257
211,2017-11-02,79.6875991821289,-0.009267052223137395
212,2017-11-03,80.0004653930664,0.003926159329037393
213,2017-11-06,78.9974594116211,-0.01253750183223612
214,2017-11-07,78.87783813476562,-0.0015142420749529872
215,2017-11-08,78.8870620727539,0.00011693953848634919
216,2017-11-09,77.9945068359375,-0.011314342470926886
217,2017-11-10,78.13249206542969,0.0017691659975802576
218,2017-11-13,78.75824737548828,0.00800889992776077
219,2017-11-14,78.77662658691406,0.00023336237204674148
220,2017-11-15,78.6570053100586,-0.001518486917226558
221,2017-11-16,79.23672485351562,0.007370221395689214
222,2017-11-17,78.81341552734375,-0.005342337495074956
223,2017-11-20,78.64781188964844,-0.002101211279669224
224,2017-11-21,79.63240814208984,0.012519054615567793
225,2017-11-22,78.9974594116211,-0.00797349653593038
226,2017-11-24,79.36553192138672,0.004659295533135488
227,2017-11-27,79.81644439697266,0.005681464795480373
228,2017-11-28,79.97286987304688,0.0019598151390485263
229,2017-11-29,80.57099914550781,0.007479152285149171
230,2017-11-30,81.3531494140625,0.009707590533191146
231,2017-12-01,80.60778045654297,-0.009162140161603771
232,2017-12-04,81.03106689453125,0.005251185873012432
233,2017-12-05,81.89602661132812,0.010674420934413842
234,2017-12-06,81.1323013305664,-0.009325547433287507
235,2017-12-07,81.32552337646484,0.0023815674241898233
236,2017-12-08,80.88382720947266,-0.005431212104809013
237,2017-12-11,80.31333923339844,-0.007053177325508697
238,2017-12-12,79.53117370605469,-0.009738924253550163
239,2017-12-13,79.77041625976562,0.003008160731981402
240,2017-12-14,79.4759750366211,-0.003691108019114653
241,2017-12-15,80.03729248046875,0.007062731140939249
242,2017-12-18,79.66000366210938,-0.004713912810724419
243,2017-12-19,79.66920471191406,0.00011550400931081839
244,2017-12-20,79.43917083740234,-0.0028873625052933116
245,2017-12-21,78.9146728515625,-0.0066025108307512514
246,2017-12-22,79.04349517822266,0.0016324255300719237
247,2017-12-26,78.5741958618164,-0.005937228804825723
248,2017-12-27,78.78583526611328,0.0026934975531798244
249,2017-12-28,79.82563781738281,0.013197836232330395
250,2017-12-29,79.39313507080078,-0.0054180932142561256
251,2018-01-02,80.06486511230469,0.008460807611450072
252,2018-01-03,80.23052215576172,0.0020690354405101807
253,2018-01-04,79.14472198486328,-0.013533504976951716
254,2018-01-05,79.97286987304688,0.01046371592968609
255,2018-01-08,80.2397232055664,0.0033367982534970864
256,2018-01-09,79.49436950683594,-0.009289086115376377
257,2018-01-10,78.83182525634766,-0.008334480222920826
258,2018-01-11,79.36553192138672,0.006770192917689544
259,2018-01-12,79.65080261230469,0.0035943902096005065
260,2018-01-16,79.35633850097656,-0.0036969384070291156
261,2018-01-17,79.9084243774414,0.006957048257185461
262,2018-01-18,80.2765121459961,0.004606369996936088
263,2018-01-19,81.53719329833984,0.015704234260339955
264,2018-01-22,80.47897338867188,-0.012978370567600983
265,2018-01-23,80.60778045654297,0.0016005058519947823
266,2018-01-24,81.1598892211914,0.006849323496087134
267,2018-01-25,82.29170989990234,0.01394556707225525
268,2018-01-26,82.02484893798828,-0.0032428656815937096
269,2018-01-29,80.72742462158203,-0.015817454505611117
270,2018-01-30,80.98601531982422,0.003203257126736858
271,2018-01-31,80.73664093017578,-0.003079227798325701
272,2018-02-01,80.20097351074219,-0.0066347498888003065
273,2018-02-02,79.2405014038086,-0.011975816064189626
274,2018-02-05,77.00550079345703,-0.02820528102115394
275,2018-02-06,77.38416290283203,0.004917338443011232
276,2018-02-07,77.43956756591797,0.000715969017530238
277,2018-02-08,75.15840911865234,-0.02945727254124786
278,2018-02-09,75.8787841796875,0.009584756642438963
279,2018-02-12,76.28514099121094,0.005355341626997578
280,2018-02-13,82.8608169555664,0.08619864732390115
281,2018-02-14,83.72897338867188,0.010477285464986608
282,2018-02-15,84.19995880126953,0.005625118683962871
283,2018-02-16,84.80951690673828,0.007239410970585336
284,2018-02-20,84.09838104248047,-0.008385095095398531
285,2018-02-21,83.26717376708984,-0.009883748831868266
286,2018-02-22,83.68278503417969,0.0049912978703032795
287,2018-02-23,84.0337142944336,0.004193565738886074
288,2018-02-26,83.83979034423828,-0.0023076922378540976
289,2018-02-27,82.65763854980469,-0.014100128227656494
290,2018-02-28,82.583740234375,-0.0008940288729052392
291,2018-03-01,82.19586181640625,-0.004696789184746808
292,2018-03-02,82.8238754272461,0.007640452900689709
293,2018-03-05,83.48881530761719,0.008028359901550264
294,2018-03-06,83.83053588867188,0.004093010300788347
295,2018-03-07,83.24871063232422,-0.006940493105284773
296,2018-03-08,83.07323455810547,-0.0021078533575583647
297,2018-03-09,83.92288970947266,0.010227784627464986
298,2018-03-12,83.83979034423828,-0.0009901871291855269
299,2018-03-13,83.5811538696289,-0.0030848893293677904
300,2018-03-14,83.18404388427734,-0.0047511905132463506
301,2018-03-15,83.37800598144531,0.0023317223846175406
302,2018-03-16,83.25791931152344,-0.0014402679520615358
303,2018-03-19,83.08246612548828,-0.0021073453130466824
304,2018-03-20,82.91624450683594,-0.00200068229078898
305,2018-03-21,82.74075317382812,-0.002116489163873636
306,2018-03-22,81.23536682128906,-0.018194013165150125
307,2018-03-23,80.13634490966797,-0.013528860084288774
308,2018-03-26,81.46623992919922,0.016595404008385328
309,2018-03-27,81.34619903564453,-0.0014735047752174601
310,2018-03-28,81.60477447509766,0.0031787034000176906
311,2018-03-29,82.96239471435547,0.016636529516690146
312,2018-04-02,81.2076644897461,-0.021150910971784453
313,2018-04-03,82.71305847167969,0.018537584985265587
314,2018-04-04,82.8515625,0.0016745122339749674
315,2018-04-05,83.48881530761719,0.007691500176803423
316,2018-04-06,81.73408508300781,-0.021017548496095162
317,2018-04-09,83.02705383300781,0.015819211149019186
318,2018-04-10,85.63148498535156,0.031368464038023625
319,2018-04-11,85.19739532470703,-0.005069276338239281
320,2018-04-12,85.61300659179688,0.004878215648563611
321,2018-04-13,85.6591567993164,0.000539056030815166
322,2018-04-16,87.09989929199219,0.016819480210985116
323,2018-04-17,88.78075408935547,0.019298010801693577
324,2018-04-18,88.30050659179688,-0.005409364929196636
325,2018-04-19,87.55243682861328,-0.008471862643346206
326,2018-04-20,87.21996307373047,-0.003797424342781519
327,2018-04-23,87.13684844970703,-0.0009529311993995426
328,2018-04-24,86.05628967285156,-0.012400709872805837
329,2018-04-25,86.02857971191406,-0.0003219980903527153
330,2018-04-26,86.14864349365234,0.0013956266875536638
331,2018-04-27,86.31488037109375,0.0019296517124340884
332,2018-04-30,86.3518295288086,0.00042807401870903483
333,2018-05-01,86.38876342773438,0.00042771414488051995
334,2018-05-02,85.48369598388672,-0.010476680159969609
335,2018-05-03,84.15380096435547,-0.015557294338114813
336,2018-05-04,85.20661926269531,0.012510644632507839
337,2018-05-07,85.70535278320312,0.005853225075979074
338,2018-05-08,85.03810119628906,-0.007785413223861504
339,2018-05-09,86.1501693725586,0.013077293126555034
340,2018-05-10,86.91937255859375,0.00892863231305685
341,2018-05-11,87.38275146484375,0.005331134965770978
342,2018-05-14,86.53013610839844,-0.009757250053957667
343,2018-05-15,85.35315704345703,-0.01360195554837651
344,2018-05-16,86.68769836425781,0.015635523828618325
345,2018-05-17,86.45600891113281,-0.002672691252586401
346,2018-05-18,86.70622253417969,0.0028941148937844385
347,2018-05-21,87.1232681274414,0.004809869246665821
348,2018-05-22,87.0769271850586,-0.0005319008730827468
349,2018-05-23,87.19738006591797,0.0013832927361272507
350,2018-05-24,87.14178466796875,-0.0006375810592840203
351,2018-05-25,87.18814086914062,0.0005319629538056425
352,2018-05-29,86.47451782226562,-0.00818486367252702
353,2018-05-30,87.0769271850586,0.00696632231047678
354,2018-05-31,85.55706024169922,-0.01745430152960392
355,2018-06-01,85.9740982055664,0.004874383980574493
356,2018-06-04,86.98424530029297,0.011749435188157076
357,2018-06-05,87.03983306884766,0.0006390555940651854
358,2018-06-06,87.03058624267578,-0.00010623671767107101
359,2018-06-07,86.40965270996094,-0.007134658739209598
360,2018-06-08,86.79891204833984,0.004504813133383134
361,2018-06-11,86.94717407226562,0.0017081092426967093
362,2018-06-12,87.25300598144531,0.0035174450744712704
363,2018-06-13,87.41053771972656,0.001805459153060518
364,2018-06-14,87.91098022460938,0.005725196503051366
365,2018-06-15,87.96659851074219,0.0006326659763173925
366,2018-06-18,87.89246368408203,-0.0008427610924515161
367,2018-06-19,87.34568786621094,-0.006220963606577312
368,2018-06-20,87.70710754394531,0.004137807905159274
369,2018-06-21,86.27992248535156,-0.016272171076656017
370,2018-06-22,85.84436798095703,-0.005048155953877642
371,2018-06-25,85.42733764648438,-0.004857981301291225
372,2018-06-26,85.91850280761719,0.005749507999012637
373,2018-06-27,85.35315704345703,-0.006580023460441842
374,2018-06-28,85.91850280761719,0.006623606949562655
375,2018-06-29,86.53939819335938,0.007226561979698953
376,2018-07-02,86.73402404785156,0.0022489855320848573
377,2018-07-03,87.10472869873047,0.004274039570381083
378,2018-07-05,87.61444854736328,0.005851804560413454
379,2018-07-06,87.18814086914062,-0.004865723465601657
380,2018-07-09,88.13341522216797,0.010841776686649318
381,2018-07-10,89.06942749023438,0.010620401645696997
382,2018-07-11,88.67093658447266,-0.004473935860937361
383,2018-07-12,88.72651672363281,0.0006268134893017141
384,2018-07-13,87.92024230957031,-0.009087186602556474
385,2018-07-16,86.45600891113281,-0.0166541101340677
386,2018-07-17,87.70710754394531,0.01447092745281009
387,2018-07-18,87.68856048583984,-0.0002114658506572331
388,2018-07-19,89.27332305908203,0.01807262617223704
389,2018-07-20,88.76360321044922,-0.005709654700491784
390,2018-07-23,88.17048645019531,-0.006681981564534811
391,2018-07-24,87.80907440185547,-0.004099013886511682
392,2018-07-25,87.79051208496094,-0.0002113940617296528
393,2018-07-26,89.0323486328125,0.014145452832645011
394,2018-07-27,95.36202239990234,0.07109408955608609
395,2018-07-30,94.99134826660156,-0.003887020471801117
396,2018-07-31,95.24237823486328,0.0026426613880370375
397,2018-08-01,95.24237823486328,0.0
398,2018-08-02,95.75377655029295,0.0053694408403850424
399,2018-08-03,96.79517364501952,0.010875780906454358
400,2018-08-06,96.89746856689452,0.0010568184137997871
401,2018-08-07,96.2837905883789,-0.006333271524961992
402,2018-08-08,95.73517608642578,-0.005697890564970609
403,2018-08-09,96.60920715332033,0.009129675241893453
404,2018-08-10,95.19586944580078,-0.01462943076715817
405,2018-08-13,94.28466796875,-0.009571859392172088
406,2018-08-14,94.82394409179688,0.005719658717211695
407,2018-08-15,94.22884368896484,-0.006275845289201776
408,2018-08-16,94.53572082519533,0.003256721872163082
409,2018-08-17,95.5492172241211,0.010720777184317631
410,2018-08-20,95.64220428466795,0.0009731849537684134
411,2018-08-21,96.0420150756836,0.0041802757893958375
412,2018-08-22,95.93973541259766,-0.0010649470755620394
413,2018-08-23,95.68870544433594,-0.002616538050497441
414,2018-08-24,96.51622772216795,0.008648066393931897
415,2018-08-27,97.20429229736328,0.00712900401760419
416,2018-08-28,96.59990692138672,-0.00621768197362782
417,2018-08-29,97.3530731201172,0.0077967590521945684
418,2018-08-30,97.3530731201172,0.0
419,2018-08-31,97.36238861083984,9.568769042500591e-05
420,2018-09-04,98.91520690917967,0.01594885171261029
421,2018-09-05,100.58890533447266,0.016920537069994745
422,2018-09-06,101.30485534667967,0.007117584288509615
423,2018-09-07,100.32854461669922,-0.009637353773808588
424,2018-09-10,100.94223022460938,0.006116759794081661
425,2018-09-11,100.90503692626952,-0.000368461230320527
426,2018-09-12,101.71397399902344,0.008016815586173509
427,2018-09-13,103.04364013671876,0.013072600405015011
428,2018-09-14,104.11294555664062,0.010377209292131928
429,2018-09-17,103.4899673461914,-0.005983676737973953
430,2018-09-18,103.75961303710938,0.0026055249395910973
431,2018-09-19,103.33189392089844,-0.004122211944429299
432,2018-09-20,102.7367935180664,-0.00575911637976545
433,2018-09-21,102.57872009277344,-0.001538625256638615
434,2018-09-24,102.63450622558594,0.0005438372867399011
435,2018-09-25,101.12820434570312,-0.014676368945274909
436,2018-09-26,100.97942352294922,-0.0014712099726926775
437,2018-09-27,100.73767852783205,-0.002394002527279504
438,2018-09-28,100.17976379394533,-0.005538292543961876
439,2018-10-01,100.20767974853516,0.00027865861859344143
440,2018-10-02,100.56099700927734,0.0035258501307366963
441,2018-10-03,100.4215316772461,-0.0013868730042362332
442,2018-10-04,99.57538604736328,-0.008425938299789326
443,2018-10-05,99.64977264404295,0.0007470379943521621
444,2018-10-08,100.11468505859376,0.004665463876285081
445,2018-10-09,98.301513671875,-0.018110943321227757
446,2018-10-10,95.23307037353516,-0.03121460884704319
447,2018-10-11,94.4427261352539,-0.008299052368901494
448,2018-10-12,94.51709747314452,0.0007874755519456933
449,2018-10-15,94.98202514648438,0.0049189795896129596
450,2018-10-16,98.18993377685548,0.03377384958284235
451,2018-10-17,97.65064239501952,-0.005492328603271535
452,2018-10-18,96.95325469970705,-0.007141660087512602
453,2018-10-19,96.999755859375,0.00047962453464789334
454,2018-10-22,96.67430114746094,-0.003355211660386992
455,2018-10-23,96.40465545654295,-0.0027892178967674486
456,2018-10-24,93.05728149414062,-0.03472211945108039
457,2018-10-25,94.18238067626952,0.012090393831241775
458,2018-10-26,93.31763458251952,-0.00918161218203184
459,2018-10-29,93.13166046142578,-0.0019929150789744776
460,2018-10-30,94.57780456542967,0.015527953617909152
461,2018-10-31,95.1282730102539,0.005820270911907288
462,2018-11-01,96.26652526855467,0.011965446468034546
463,2018-11-02,96.84500122070312,0.006009108052198675
464,2018-11-05,95.0536117553711,-0.018497490244742454
465,2018-11-06,97.1248779296875,0.021790504706407088
466,2018-11-07,98.06719970703124,0.009702166915730004
467,2018-11-08,98.08586883544922,0.00019037077099937072
468,2018-11-09,97.30216217041016,-0.007990005842266834
469,2018-11-12,94.95099639892578,-0.024163551138428607
470,2018-11-13,95.5201187133789,0.005993852998256388
471,2018-11-14,95.24022674560548,-0.002930188650762444
472,2018-11-15,97.76862335205078,0.026547570211050253
473,2018-11-16,99.15880584716795,0.014219106779394197
474,2018-11-19,98.13253784179688,-0.010349741473821839
475,2018-11-20,97.3208236694336,-0.00827161092757911
476,2018-11-21,96.56509399414062,-0.007765344011677611
477,2018-11-23,96.93827056884766,0.0038645079631949297
478,2018-11-26,96.74237060546876,-0.002020873306582849
479,2018-11-27,95.44549560546876,-0.013405449875617204
480,2018-11-28,97.05955505371094,0.01691079749760016
481,2018-11-29,96.89163970947266,-0.0017300238409846402
482,2018-11-30,97.07823944091795,0.0019258599813649635
483,2018-12-03,97.46076202392578,0.003940353525268003
484,2018-12-04,96.04261016845705,-0.014551003152638908
485,2018-12-06,94.82037353515624,-0.012725983093931248
486,2018-12-07,93.08502197265624,-0.018301463048514433
487,2018-12-10,92.46923065185548,-0.006615364188039208
488,2018-12-11,92.05872344970705,-0.004439392425508393
489,2018-12-12,93.23426818847656,0.012769509446997063
490,2018-12-13,93.59814453125,0.003902817599617414
491,2018-12-14,93.6168212890625,0.0001995419664142517
492,2018-12-17,92.03072357177734,-0.016942443627601222
493,2018-12-18,91.37762451171876,-0.0070965329263027455
494,2018-12-19,89.18509674072266,-0.02399414279712342
495,2018-12-20,88.6439437866211,-0.006067750934607319
496,2018-12-21,87.2817611694336,-0.015366899970814418
497,2018-12-24,83.68974304199219,-0.04115428102405594
498,2018-12-26,85.62101745605469,0.023076596293209573
499,2018-12-27,86.18083953857422,0.0065383722262686295
500,2018-12-28,86.48873138427734,0.003572625276704544
501,2018-12-31,87.76692962646484,0.014778783567865661
502,2019-01-02,84.1375732421875,-0.041352208624864106
503,2019-01-03,83.12060546875,-0.01208696346054794
504,2019-01-04,84.96795654296875,0.02222494727752289
505,2019-01-07,85.78897094726562,0.009662635629958727
506,2019-01-08,87.25379180908203,0.017074699062620047
507,2019-01-09,87.21646881103516,-0.0004277521615168034
508,2019-01-10,88.24275207519531,0.011767081127576073
509,2019-01-11,88.38272094726562,0.0015861798139640282
510,2019-01-14,87.66429138183594,-0.00812862013897886
511,2019-01-15,88.45733642578125,0.009046386293035447
512,2019-01-16,88.3640365600586,-0.0010547442359508663
513,2019-01-17,89.5022964477539,0.012881483599062049
514,2019-01-18,91.1443862915039,0.01834690179942533
515,2019-01-22,89.9781494140625,-0.01279548774086281
516,2019-01-23,90.85516357421876,0.009746968190248229
517,2019-01-24,90.62190246582033,-0.0025673951729544564
518,2019-01-25,90.86448669433594,0.0026768829820926765
519,2019-01-28,91.32164001464844,0.00503115504135665
520,2019-01-29,91.69612884521484,0.004100767687771789
521,2019-01-30,91.7148666381836,0.00020434660879065092
522,2019-01-31,92.8009262084961,0.011841696009841307
523,2019-02-01,93.2035140991211,0.004338188281876709
524,2019-02-04,93.48439025878906,0.003013579073523509
525,2019-02-05,94.62661743164062,0.01221837324594599
526,2019-02-06,95.11344909667967,0.005144764530875756
527,2019-02-07,95.45050048828124,0.003543677521976596
528,2019-02-08,94.92618560791016,-0.00549305532908595
529,2019-02-11,95.2164306640625,0.0030575868428042163
530,2019-02-12,95.79692840576172,0.006096613133370843
531,2019-02-13,96.2463150024414,0.0046910334617018545
532,2019-02-14,95.2819595336914,-0.01001966120703468
533,2019-02-15,95.44113159179688,0.001670537202262068
534,2019-02-19,95.07600402832033,-0.003825683511781919
535,2019-02-20,95.74075317382812,0.006991765717349496
536,2019-02-21,96.54592895507812,0.008409958712024324
537,2019-02-22,95.54412841796876,-0.010376414085522812
538,2019-02-25,95.08535766601562,-0.0048016634779082246
539,2019-02-26,94.8512954711914,-0.0024616008244545684
540,2019-02-27,94.9449462890625,0.0009873435824556687
541,2019-02-28,95.24456024169922,0.0031556598254796064
542,2019-03-01,94.38318634033205,-0.009043812047441757
543,2019-03-04,95.1321792602539,0.007935660459916116
544,2019-03-05,95.00110626220705,-0.001377798753966153
545,2019-03-06,94.08358764648438,-0.009657978225961705
546,2019-03-07,93.51246643066406,-0.006070359667472269
547,2019-03-08,94.06485748291016,0.005907138088969921
548,2019-03-11,95.51603698730467,0.015427435316724525
549,2019-03-12,95.74075317382812,0.0023526540004306096
550,2019-03-13,95.75946807861328,0.00019547480215842405
551,2019-03-14,96.33058166503906,0.005964043011986275
552,2019-03-15,96.4803695678711,0.0015549361401436812
553,2019-03-18,97.09827423095705,0.006404459952356056
554,2019-03-19,96.99532318115234,-0.0010602768238684446
555,2019-03-20,97.32300567626952,0.003378332937817863
556,2019-03-21,98.8116226196289,0.015295632651451951
557,2019-03-22,97.2106475830078,-0.016202294772387216
558,2019-03-25,97.84729766845705,0.006549180581330916
559,2019-03-26,98.718017578125,0.008898762974714813
560,2019-03-27,98.79290771484376,0.0007586268297932186
561,2019-03-28,99.42019653320312,0.006349532905438604
562,2019-03-29,99.60742950439452,0.001883248854058106
563,2019-04-01,100.84329223632812,0.012407334855268903
564,2019-04-02,100.384521484375,-0.00454934326100731
565,2019-04-03,100.61857604980467,0.002331580227396879
566,2019-04-04,101.20844268798828,0.005862402961175128
567,2019-04-05,101.80762481689452,0.0059202781210005995
568,2019-04-08,102.04168701171876,0.0022990635057562603
569,2019-04-09,101.26461029052734,-0.007615286888604467
570,2019-04-10,102.0885009765625,0.008136017940240103
571,2019-04-11,102.66897583007812,0.0056859964438982225
572,2019-04-12,103.27753448486328,0.005927386046904237
573,2019-04-15,102.88429260253906,-0.003807622676951672
574,2019-04-16,102.63153839111328,-0.0024566841549099605
575,2019-04-17,100.83393096923828,-0.01751515616013266
576,2019-04-18,101.31140899658205,0.00473529121352434
577,2019-04-22,101.98551940917967,0.006653845003975478
578,2019-04-23,103.04346466064452,0.01037348495741064
579,2019-04-24,102.9311294555664,-0.0010901730201723359
580,2019-04-25,102.47237396240234,-0.0044569169267894004
581,2019-04-26,104.31676483154295,0.01799890836741347
582,2019-04-29,104.22313690185548,-0.0008975348290245488
583,2019-04-30,104.48616790771484,0.002523729506501482
584,2019-05-01,105.9608154296875,0.014113327644240004
585,2019-05-02,106.13932800292967,0.0016847036568969909
586,2019-05-03,106.93768310546876,0.007521765188837959
587,2019-05-06,108.0366439819336,0.010276647525465421
588,2019-05-07,107.0503921508789,-0.009128864010433446
589,2019-05-08,107.06918334960938,0.00017553601021824683
590,2019-05-09,106.13932800292967,-0.008684621639855727
591,2019-05-10,106.70285034179688,0.005309269895242386
592,2019-05-13,105.9514389038086,-0.007042093398454852
593,2019-05-14,106.12049102783205,0.0015955623233860905
594,2019-05-15,106.3647232055664,0.0023014610596769902
595,2019-05-16,107.1819076538086,0.007682852205264101
596,2019-05-17,106.8719482421875,-0.0028919004933393166
597,2019-05-20,106.17684936523438,-0.006504034860279062
598,2019-05-21,106.59015655517578,0.003892630007504616
599,2019-05-22,106.28018951416016,-0.0029080268857206715
600,2019-05-23,106.10173797607422,-0.0016790668035284728
601,2019-05-24,106.07352447509766,-0.00026590988531138837
602,2019-05-28,106.04535675048828,-0.0002655490590018905
603,2019-05-29,105.8575210571289,-0.001771276924470433
604,2019-05-30,106.61831665039062,0.007186977228109681
605,2019-05-31,106.39289855957033,-0.0021142529529842857
606,2019-06-03,107.10675048828124,0.006709582485068033
607,2019-06-04,108.69416046142578,0.014820820965138148
608,2019-06-05,110.01853942871094,0.012184453715479604
609,2019-06-06,112.93032836914062,0.026466347904177123
610,2019-06-07,114.51770782470705,0.014056272380415624
611,2019-06-10,115.73880004882812,0.010662911852813206
612,2019-06-11,115.13764190673828,-0.00519409344002375
613,2019-06-12,114.23594665527344,-0.007831454913721614
614,2019-06-13,113.3905792236328,-0.007400187562603966
615,2019-06-14,112.79882049560548,-0.005218764487129324
616,2019-06-17,112.8739776611328,0.0006662938956019104
617,2019-06-18,112.2352523803711,-0.005658746984883112
618,2019-06-19,112.16011810302734,-0.0006694356340832819
619,2019-06-20,112.53582000732422,0.00334969248117023
620,2019-06-21,112.13192749023438,-0.003589012965503402
621,2019-06-24,111.568359375,-0.005025937998644148
622,2019-06-25,113.7099380493164,0.019195215259177667
623,2019-06-26,112.00043487548828,-0.015033894162238548
624,2019-06-27,114.17017364501952,0.019372592364871988
625,2019-06-28,116.79078674316406,0.022953570223100517
626,2019-07-01,116.72503662109376,-0.0005629735350176635
627,2019-07-02,116.0393524169922,-0.0058743541570039914
628,2019-07-03,118.27487182617188,0.019265183427999766
629,2019-07-05,117.04439544677734,-0.010403531708772062
630,2019-07-08,116.4620590209961,-0.004975346521790991
631,2019-07-09,116.53718566894533,0.0006450740144967604
632,2019-07-10,116.07691192626952,-0.00394958690682079
633,2019-07-11,116.49020385742188,0.0035605007429460045
634,2019-07-12,115.9172592163086,-0.004918393325283654
635,2019-07-15,115.45700073242188,-0.003970577694800803
636,2019-07-16,115.68243408203124,0.00195253079656732
637,2019-07-17,116.02995300292967,0.003004076838943437
638,2019-07-18,116.80957794189452,0.006719169652211754
639,2019-07-19,115.90786743164062,-0.007719491210750218
640,2019-07-22,115.68243408203124,-0.0019449357028533676
641,2019-07-23,116.95046997070312,0.01096135207332094
642,2019-07-24,115.8045425415039,-0.009798399523202272
643,2019-07-25,115.45700073242188,-0.0030011068776293337
644,2019-07-26,116.9316864013672,0.012772596374324596
645,2019-07-29,117.35436248779295,0.00361472667874585
646,2019-07-30,116.6290283203125,-0.006180717547299541
647,2019-07-31,114.0008316040039,-0.022534670434623316
648,2019-08-01,110.74153900146484,-0.028590077429089478
649,2019-08-02,111.1748504638672,0.003912817776504207
650,2019-08-05,110.28936004638672,-0.00796484469091574
651,2019-08-06,112.77623748779295,0.022548661451660124
652,2019-08-07,114.60370635986328,0.016204378801590424
653,2019-08-08,115.74356079101562,0.009946052072461908
654,2019-08-09,114.05735778808594,-0.014568438981882204
655,2019-08-12,113.058837890625,-0.008754541722035603
656,2019-08-13,114.1892547607422,0.009998483012984671
657,2019-08-14,112.18276977539062,-0.017571574396870515
658,2019-08-15,111.46685791015624,-0.006381656172937844
659,2019-08-16,113.27549743652344,0.016225805232843227
660,2019-08-19,113.24725341796876,-0.0002493391703752845
661,2019-08-20,111.98495483398438,-0.011146394688492323
662,2019-08-21,112.40885925292967,0.0037853693790717013
663,2019-08-22,113.54867553710938,0.010139915054337534
664,2019-08-23,113.2849349975586,-0.002322709078756202
665,2019-08-26,113.97257995605467,0.006070047694434422
666,2019-08-27,114.45299530029295,0.004215183550495327
667,2019-08-28,114.7921371459961,0.0029631539551526753
668,2019-08-29,114.63197326660156,-0.0013952513070719652
669,2019-08-30,115.13125610351562,0.0043555285902030505
670,2019-09-03,112.71031188964844,-0.021027688707665027
671,2019-09-04,114.86750030517578,0.019139228517434992
672,2019-09-05,114.1703872680664,-0.0060688448452113075
673,2019-09-06,113.86895751953124,-0.0026401745299104995
674,2019-09-09,112.19220733642578,-0.014725261560578073
675,2019-09-10,112.20162963867188,8.398357131733647e-05
676,2019-09-11,111.7494659423828,-0.004029920935597842
677,2019-09-12,111.20310974121094,-0.004889116888071365
678,2019-09-13,111.53282165527344,0.0029649522826276087
679,2019-09-16,109.72417449951172,-0.01621627722601604
680,2019-09-17,110.22342681884766,0.004550066761615623
681,2019-09-18,111.4385986328125,0.011024623794014143
682,2019-09-19,111.01471710205078,-0.003803722731280934
683,2019-09-20,111.20310974121094,0.0016970059833325557
684,2019-09-23,111.2501983642578,0.00042344699852758794
685,2019-09-24,111.6364288330078,0.0034717283602982985
686,2019-09-25,112.21104431152344,0.005147204049093856
687,2019-09-26,112.02264404296876,-0.0016789815094460092
688,2019-09-27,111.78714752197266,-0.0021022224837486947
689,2019-09-30,111.57990264892578,-0.001853923976422589
690,2019-10-01,110.84513854980467,-0.006585093566831346
691,2019-10-02,108.65970611572266,-0.019716087351003386
692,2019-10-03,108.32057189941406,-0.0031210669385338674
693,2019-10-04,110.52488708496094,0.020349921966750673
694,2019-10-07,109.79953002929688,-0.006562839146865396
695,2019-10-08,108.1227569580078,-0.015271222662261663
696,2019-10-09,109.72417449951172,0.014811105326567597
697,2019-10-10,109.5640106201172,-0.0014596954602308365
698,2019-10-11,109.58287048339844,0.0001721355687374082
699,2019-10-14,109.13069915771484,-0.00412629568552958
700,2019-10-15,108.49957275390624,-0.005783215984866974
701,2019-10-16,108.77274322509766,0.002517710109430693
702,2019-10-17,109.79010772705078,0.009353119833042767
703,2019-10-18,110.94876861572266,0.010553417904939355
704,2019-10-21,111.06179809570312,0.0010187538031354304
705,2019-10-22,109.89373016357422,-0.010517279137893798
706,2019-10-23,110.56253051757812,0.006085882725141989
707,2019-10-24,110.53429412841795,-0.00025538841258410105
708,2019-10-25,111.04296875,0.004601962002770632
709,2019-10-28,111.34440612792967,0.002714601215393797
710,2019-10-29,111.97745513916016,0.005685503504353262
711,2019-10-30,112.67667388916016,0.006244281486224468
712,2019-10-31,111.6373062133789,-0.009224337566120178
713,2019-11-01,104.68301391601562,-0.06229362328101262
714,2019-11-04,102.67987823486328,-0.019135250373660484
715,2019-11-05,102.67044067382812,-9.191246812323417e-05
716,2019-11-06,103.45465850830078,0.0076382046217569055
717,2019-11-07,103.36963653564452,-0.0008218283630934131
718,2019-11-08,102.9916763305664,-0.003656394834548715
719,2019-11-11,102.59484100341795,-0.0038530815429661525
720,2019-11-12,102.2546844482422,-0.003315532748517258
721,2019-11-13,103.57752227783205,0.01293669660933161
722,2019-11-14,104.38066864013672,0.007754060385325223
723,2019-11-15,103.89877319335938,-0.004616711629226389
724,2019-11-18,104.2578125,0.0034556645435306343
725,2019-11-19,104.4089813232422,0.0014499519951294282
726,2019-11-20,104.59798431396484,0.0018102177449419443
727,2019-11-21,105.16490173339844,0.005419965051447928
728,2019-11-22,104.04995727539062,-0.010601868490632826
729,2019-11-25,104.83419036865234,0.007537082318891164
730,2019-11-26,106.35543060302734,0.014510916992114042
731,2019-11-27,106.61058044433594,0.0023990297426461638
732,2019-11-29,105.93968200683594,-0.00629298175381654
733,2019-12-02,105.8357391357422,-0.0009811514356540263
734,2019-12-03,106.49720001220705,0.006249881957327119
735,2019-12-04,105.61843872070312,-0.008251496672243008
736,2019-12-05,105.7790756225586,0.0015209172167396368
737,2019-12-06,105.90189361572266,0.0011610802272681298
738,2019-12-09,106.4215850830078,0.004907291546371262
739,2019-12-10,105.76962280273438,-0.006126222229869027
740,2019-12-11,106.36490631103516,0.00562811412697406
741,2019-12-12,107.88614654541016,0.014302087851481238
742,2019-12-13,107.68772888183594,-0.0018391394069368072
743,2019-12-16,108.01844024658205,0.0030710218163203518
744,2019-12-17,107.10189819335938,-0.008485051729412163
745,2019-12-18,106.8467788696289,-0.0023820242968045635
746,2019-12-19,107.01687622070312,0.0015919745346910652
747,2019-12-20,108.6231460571289,0.015009500306410795
748,2019-12-23,109.01056671142578,0.003566649175242187
749,2019-12-24,108.40583801269533,-0.005547431932275915
750,2019-12-26,108.4908676147461,0.0007843636801259102
751,2019-12-27,108.67985534667967,0.0017419690347086902
752,2019-12-30,109.37905883789062,0.006433607120478246
753,2019-12-31,109.24677276611328,-0.0012094277751411031
754,2020-01-02,107.41370391845705,-0.01677915787572648
755,2020-01-03,107.75386810302734,0.0031668602064829354
756,2020-01-06,107.76331329345705,8.765523313436496e-05
757,2020-01-07,106.6861572265625,-0.009995573019931925
758,2020-01-08,106.97907257080078,0.0027455796689370704
759,2020-01-09,108.3396987915039,0.012718620455441254
760,2020-01-10,109.4074249267578,0.009855354474528344
761,2020-01-13,109.7947998046875,0.0035406635170238676
762,2020-01-14,109.7286605834961,-0.0006023893782680645
763,2020-01-15,110.27670288085938,0.004994522802419965
764,2020-01-16,111.70345306396484,0.012937911143815262
765,2020-01-17,110.85306549072266,-0.0076129031817416815
766,2020-01-21,109.25621032714844,-0.014405151147650175
767,2020-01-22,109.29402923583984,0.0003461488237435084
768,2020-01-23,110.90032958984376,0.014697054955653321
769,2020-01-24,110.6640853881836,-0.002130238950000418
770,2020-01-27,110.06880950927734,-0.005379124372809518
771,2020-01-28,109.91716003417967,-0.0013777697403448697
772,2020-01-29,109.88872528076172,-0.00025869257729282946
773,2020-01-30,110.45741271972656,0.0051751209008190635
774,2020-01-31,109.4811782836914,-0.008838107031460596
775,2020-02-03,111.12088775634766,0.014977090111392366
776,2020-02-04,110.84602355957033,-0.002473560122917884
777,2020-02-05,111.71800231933594,0.00786657682218972
778,2020-02-06,111.395751953125,-0.002884498107026734
779,2020-02-07,110.60906219482422,-0.007062116324075052
780,2020-02-10,109.75605010986328,-0.007711954771467688
781,2020-02-11,109.99300384521484,0.002158912744348651
782,2020-02-12,108.72293090820312,-0.011546852005232977
783,2020-02-13,110.1351547241211,0.01298919928041986
784,2020-02-14,110.58062744140624,0.004044782235073097
785,2020-02-18,109.24422454833984,-0.0120853256486948
786,2020-02-19,109.00727081298828,-0.0021690275740545717
787,2020-02-20,108.9314422607422,-0.0006956283895610538
788,2020-02-21,106.13542175292967,-0.025667708512661314
789,2020-02-24,103.50999450683594,-0.024736579011344628
790,2020-02-25,101.35848236083984,-0.02078554980363756
791,2020-02-26,99.2164306640625,-0.021133423142145724
792,2020-02-27,97.05542755126952,-0.02178069799860005
793,2020-02-28,95.79484558105467,-0.012988268683365889
794,2020-03-02,98.17384338378906,0.024834298633755303
795,2020-03-03,97.39663696289062,-0.00791663435096579
796,2020-03-04,101.83238983154295,0.0455431830807711
797,2020-03-05,98.5529556274414,-0.032204234915104935
798,2020-03-06,101.69967651367188,0.031929239120194186
799,2020-03-09,96.1550064086914,-0.054520036789252546
800,2020-03-10,98.5624542236328,0.025037155160792413
801,2020-03-11,93.9087142944336,-0.0472161531067411
802,2020-03-12,89.47298431396484,-0.047234487382729284
803,2020-03-13,91.3591079711914,0.02108037047929545
804,2020-03-16,83.29326629638672,-0.08828722011327128
805,2020-03-17,91.41597747802734,0.09751942195107532
806,2020-03-18,91.70030212402344,0.0031102292382578778
807,2020-03-19,93.71916198730467,0.02201584745654106
808,2020-03-20,87.6816177368164,-0.06442166278979444
809,2020-03-23,79.54943084716797,-0.09274677064077297
810,2020-03-24,83.46387481689453,0.04920769297830763
811,2020-03-25,85.47322082519531,0.02407443954296329
812,2020-03-26,91.17902374267578,0.06675544530081101
813,2020-03-27,89.0938491821289,-0.02286901608457259
814,2020-03-30,95.23564910888672,0.06893629563812564
815,2020-03-31,94.34471130371094,-0.00935508723374312
816,2020-04-01,91.18851470947266,-0.033453879402714715
817,2020-04-02,91.1316375732422,-0.0006237313592799554
818,2020-04-03,89.27392578125,-0.02038492713904283
819,2020-04-06,95.50103759765624,0.0697528619012977
820,2020-04-07,95.8422393798828,0.0035727547135564475
821,2020-04-08,98.67618560791016,0.02956886490094046
822,2020-04-09,101.67124938964844,0.03035244789091429
823,2020-04-13,97.0080337524414,-0.04586562735484401
824,2020-04-14,98.5908660888672,0.016316507769501776
825,2020-04-15,95.6621551513672,-0.02970570250250304
826,2020-04-16,96.5341339111328,0.009115190415539542
827,2020-04-17,97.5672378540039,0.010701954852800233
828,2020-04-20,101.35848236083984,0.03885776199290403
829,2020-04-21,100.58126831054688,-0.007667972449765581
830,2020-04-22,100.75189208984376,0.0016963772893585638
831,2020-04-23,99.5386734008789,-0.01204164670061969
832,2020-04-24,98.6856460571289,-0.008569808242415933
833,2020-04-27,106.7041015625,0.08125250049768362
834,2020-04-28,105.7152328491211,-0.009267391776872747
835,2020-04-29,104.66929626464844,-0.009893906074684988
836,2020-04-30,101.81672668457033,-0.027253164795009277
837,2020-05-01,100.92296600341795,-0.008778132142484352
838,2020-05-04,101.56002044677734,0.006312284196421825
839,2020-05-05,100.37146759033205,-0.011702959995642748
840,2020-05-06,99.70586395263672,-0.006631402864527236
841,2020-05-07,100.28588104248048,0.0058172816206607525
842,2020-05-08,102.24462127685548,0.019531565301253995
843,2020-05-11,101.08457946777344,-0.01134574899486318
844,2020-05-12,98.84060668945312,-0.02219896239500807
845,2020-05-13,97.38580322265624,-0.014718682083445067
846,2020-05-14,97.42383575439452,0.0003905346619292871
847,2020-05-15,96.51102447509766,-0.009369486145033967
848,2020-05-18,99.03076171875,0.02610828407797605
849,2020-05-19,98.63141632080078,-0.004032538890121562
850,2020-05-20,99.27796936035156,0.006555244400504812
851,2020-05-21,99.924560546875,0.006512937267849406
852,2020-05-22,99.93406677246094,9.513402444705221e-05
853,2020-05-26,104.16534423828124,0.042340691242501505
854,2020-05-27,107.01789093017578,0.027384795900729397
855,2020-05-28,106.11458587646484,-0.008440691980187709
856,2020-05-29,105.9148941040039,-0.001881850367803417
857,2020-06-01,105.94342041015624,0.00026933233889003816
858,2020-06-02,106.56147003173828,0.005833770697503349
859,2020-06-03,107.71199798583984,0.010796847620053285
860,2020-06-04,106.6280288696289,-0.010063587497034843
861,2020-06-05,107.82608795166016,0.011235873857295742
862,2020-06-08,107.99725341796876,0.0015874216486955195
863,2020-06-09,106.94182586669922,-0.00977272585984068
864,2020-06-10,106.15261840820312,-0.007379782906267396
865,2020-06-11,99.12586212158205,-0.06619484655197239
866,2020-06-12,100.18128204345705,0.010647271047998341
867,2020-06-15,100.22883605957033,0.00047467965215952646
868,2020-06-16,102.11151885986328,0.018783843794953237
869,2020-06-17,101.65510559082033,-0.004469753012579569
870,2020-06-18,101.73116302490234,0.0007481909899160755
871,2020-06-19,102.31118774414062,0.005701544167899586
872,2020-06-22,102.2636489868164,-0.00046464867012496747
873,2020-06-23,102.15907287597656,-0.0010226127453493161
874,2020-06-24,100.73278045654295,-0.013961485546811536
875,2020-06-25,102.31118774414062,0.015669251662110195
876,2020-06-26,102.42530059814452,0.0011153506915515532
877,2020-06-29,103.88009643554688,0.014203481258113326
878,2020-06-30,106.47589874267578,0.024988447221354848
879,2020-07-01,106.95132446289062,0.004465101735030341
880,2020-07-02,109.31891632080078,0.022137097130869643
881,2020-07-06,109.5946807861328,0.0025225685966623335
882,2020-07-07,109.49008178710938,-0.000954416749728404
883,2020-07-08,107.37921142578124,-0.019279101146645217
884,2020-07-09,108.1684112548828,0.007349651935626644
885,2020-07-10,109.29991149902344,0.01046054232482363
886,2020-07-13,107.85462951660156,-0.013223084653959605
887,2020-07-14,110.59307098388672,0.025390115190777607
888,2020-07-15,112.10491180419922,0.013670303273636053
889,2020-07-16,111.47735595703124,-0.005597933552314527
890,2020-07-17,113.53119659423828,0.01842383701671846
891,2020-07-20,113.42660522460938,-0.0009212566480975015
892,2020-07-21,112.37113189697266,-0.009305341771859044
893,2020-07-22,112.67542266845705,0.0027079087515411437
894,2020-07-23,112.61837768554688,-0.0005062770705376307
895,2020-07-24,113.00822448730467,0.003461662383792641
896,2020-07-27,113.95907592773438,0.008414002120142428
897,2020-07-28,112.58573150634766,-0.012051207068909608
898,2020-07-29,113.31053924560548,0.006437829461693134
899,2020-07-30,112.45221710205078,-0.007574954185808336
900,2020-07-31,109.86763763427734,-0.02298380178158621
901,2020-08-03,113.1675033569336,0.030034920143097166
902,2020-08-04,113.12934112548828,-0.0003372189923193103
903,2020-08-05,112.88137817382812,-0.00219185358275098
904,2020-08-06,112.21378326416016,-0.005914127914348533
905,2020-08-07,113.73017120361328,0.013513383965349623
906,2020-08-10,111.58432006835938,-0.01886791440252167
907,2020-08-11,111.33635711669922,-0.00222220246991911
908,2020-08-12,112.62386322021484,0.011564112001312354
909,2020-08-13,113.0339813232422,0.0036414849508887848
910,2020-08-14,113.00535583496094,-0.0002532467488639556
911,2020-08-17,112.77647399902344,-0.0020254069751505233
912,2020-08-18,112.42359161376952,-0.003129042545318206
913,2020-08-19,112.24239349365234,-0.001611744630430234
914,2020-08-20,112.1088638305664,-0.0011896544516710739
915,2020-08-21,112.34730529785156,0.002126874353534758
916,2020-08-24,113.59667205810548,0.011120576118329062
917,2020-08-25,112.66204071044922,-0.008227629654310564
918,2020-08-26,113.11027526855467,0.0039785765931352746
919,2020-08-27,114.49315643310548,0.012225955257092913
920,2020-08-28,112.66204071044922,-0.01599323295559696
921,2020-08-31,112.90998077392578,0.002200741810755913
922,2020-09-01,113.96861267089844,0.009375892987638634
923,2020-09-02,116.60084533691406,0.023096119223777745
924,2020-09-03,113.65388488769533,-0.02527392010498375
925,2020-09-04,113.2247085571289,-0.0037761694726977657
926,2020-09-08,110.68782806396484,-0.022405714490172812
927,2020-09-09,112.43314361572266,0.015767908561266752
928,2020-09-10,111.76553344726562,-0.005937841342752215
929,2020-09-11,112.88137817382812,0.009983799943915628
930,2020-09-14,113.56804656982422,0.006083097204382826
931,2020-09-15,112.85274505615234,-0.006298439880552897
932,2020-09-16,112.31867980957033,-0.004732408115693421
933,2020-09-17,110.59247589111328,-0.0153688052724954
934,2020-09-18,109.7150421142578,-0.007933937365860122
935,2020-09-21,108.19865417480467,-0.01382114895306652
936,2020-09-22,109.03792572021484,0.00775676510776413
937,2020-09-23,106.94927978515624,-0.019155224397958137
938,2020-09-24,107.06372833251952,0.001070119851140472
939,2020-09-25,106.91114044189452,-0.0014252062113051522
940,2020-09-28,107.15911102294922,0.002319408249035204
941,2020-09-29,107.40706634521484,0.0023138986493880243
942,2020-09-30,107.96021270751952,0.0051499997265247455
943,2020-10-01,108.43707275390624,0.004416998025732033
944,2020-10-02,107.6264190673828,-0.0074757983218819435
945,2020-10-05,109.24774169921876,0.015064355442513389
946,2020-10-06,109.25726318359376,8.71549766330304e-05
947,2020-10-07,109.65782165527344,0.003666195363200453
948,2020-10-08,111.12654113769533,0.01339365911388457
949,2020-10-09,111.4031219482422,0.002488881663329723
950,2020-10-12,112.57617950439452,0.010529844546881773
951,2020-10-13,112.11840057373048,-0.004066392487996673
952,2020-10-14,111.0502700805664,-0.00952680815725393
953,2020-10-15,110.9548797607422,-0.0008589832312428936
954,2020-10-16,110.96442413330078,8.602030464244237e-05
955,2020-10-19,109.81995391845705,-0.010313848098458034
956,2020-10-20,111.54617309570312,0.015718629590099953
957,2020-10-21,112.2900619506836,0.006668887280805613
958,2020-10-22,112.83370971679688,0.004841459312330265
959,2020-10-23,112.87183380126952,0.00033787849897271016
960,2020-10-26,112.02304077148438,-0.007519972000096908
961,2020-10-27,110.63591003417967,-0.012382548516374436
962,2020-10-28,107.46939086914062,-0.028621079395114934
963,2020-10-29,108.04341888427734,0.005341316355237158
964,2020-10-30,109.1435317993164,0.010182137203723407
965,2020-11-02,113.06580352783205,0.03593682249285801
966,2020-11-03,114.37638092041016,0.01159128004830845
967,2020-11-04,113.88849639892578,-0.004265605517137949
968,2020-11-05,117.58113861083984,0.03242331164843515
969,2020-11-06,118.24121856689452,0.005613825175135867
970,2020-11-09,117.82986450195312,-0.003478939661879954
971,2020-11-10,122.0773696899414,0.03604778131538855
972,2020-11-11,119.83881378173828,-0.018337189881210025
973,2020-11-12,118.8821792602539,-0.007982676824778046
974,2020-11-13,119.64749145507812,0.006437568688481221
975,2020-11-16,121.3598861694336,0.014311998467585019
976,2020-11-17,121.83820343017578,0.0039413127009233495
977,2020-11-18,120.89112854003906,-0.007773217787797382
978,2020-11-19,121.71385192871094,0.006805490184496055
979,2020-11-20,122.2686996459961,0.00455862425264586
980,2020-11-23,121.3598861694336,-0.0074329201111468235
981,2020-11-24,122.33565521240234,0.008040292997691711
982,2020-11-25,120.8145980834961,-0.012433473514040894
983,2020-11-27,121.72340393066406,0.0075223181766486125
984,2020-11-30,120.8432846069336,-0.007230485636367856
985,2020-12-01,122.27826690673828,0.011874737636205834
986,2020-12-02,120.78589630126952,-0.012204708516248441
987,2020-12-03,120.41280364990234,-0.003088875959794124
988,2020-12-04,122.14432525634766,0.014379879497529835
989,2020-12-07,123.05313873291016,0.007440488738671647
990,2020-12-08,123.58885192871094,0.004353511022287426
991,2020-12-09,123.9141082763672,0.0026317612194008966
992,2020-12-10,124.81336212158205,0.007257073933899738
993,2020-12-11,124.79422760009766,-0.00015330507214239564
994,2020-12-14,122.84268188476562,-0.015638108852163768
995,2020-12-15,124.61246490478516,0.014406906401471353
996,2020-12-16,125.41606903076172,0.006448826179552558
997,2020-12-17,127.36761474609376,0.015560571547282187
998,2020-12-18,128.28599548339844,0.0072104729223001485
999,2020-12-21,129.04176330566406,0.005891273006206177
1000,2020-12-22,128.66864013671875,-0.002891491555811143
1001,2020-12-23,128.69737243652344,0.0002233046045574394
1002,2020-12-24,129.8166046142578,0.008696620269278643
1003,2020-12-28,129.79747009277344,-0.0001473965641085595
1004,2020-12-29,129.4435272216797,-0.002726885746238139
1005,2020-12-30,130.47669982910156,0.007981647515310053
1006,2020-12-31,130.9550018310547,0.0036658039525800934
1007,2021-01-04,128.19033813476562,-0.02111155479082627
1008,2021-01-05,127.9033203125,-0.0022389973101083482
1009,2021-01-06,131.74903869628906,0.030067385071732344
1010,2021-01-07,133.6431884765625,0.01437695332745359
1011,2021-01-08,133.04051208496094,-0.004509593032549164
1012,2021-01-11,132.77264404296875,-0.0020134321327711646
1013,2021-01-12,132.16041564941406,-0.004611103423959539
1014,2021-01-13,132.57174682617188,0.003112362916964262
1015,2021-01-14,133.40402221679688,0.006277924297974913
1016,2021-01-15,132.81092834472656,-0.004445847000823289
1017,2021-01-19,131.30894470214844,-0.011309187137669485
1018,2021-01-20,134.5232696533203,0.02447910124068864
1019,2021-01-21,132.12213134765625,-0.01784924133833521
1020,2021-01-22,132.19863891601562,0.0005790670160932265
1021,2021-01-25,133.5188446044922,0.009986530113333947
1022,2021-01-26,133.1735382080078,-0.002586199704672665
1023,2021-01-27,127.8024673461914,-0.040331367132614315
1024,2021-01-28,129.72073364257812,0.01500961864210737
1025,2021-01-29,127.53395080566406,-0.016857620023483233
1026,2021-02-01,128.60813903808594,0.008422762924193528
1027,2021-02-02,131.3416290283203,0.021254409018583775
1028,2021-02-03,130.97715759277344,-0.002774987932183226
1029,2021-02-04,132.35829162597656,0.010544846586893142
1030,2021-02-05,134.90956115722656,0.019275479457376843
1031,2021-02-08,136.17556762695312,0.00938411228134628
1032,2021-02-09,136.3578338623047,0.0013384650310463986
1033,2021-02-10,137.39366149902344,0.007596392575176303
1034,2021-02-11,137.1251220703125,-0.0019545256002427847
1035,2021-02-12,138.71725463867188,0.011610801465999687
1036,2021-02-16,137.72935485839844,-0.007121679151210869
1037,2021-02-17,137.3553009033203,-0.00271586224637943
1038,2021-02-18,135.22608947753906,-0.015501487105182288
1039,2021-02-19,126.83379364013672,-0.062061218140869956
1040,2021-02-22,123.8221664428711,-0.02374467490746557
1041,2021-02-23,123.0356674194336,-0.006351843502918952
1042,2021-02-24,123.4960479736328,0.0037418462780369754
1043,2021-02-25,124.9731216430664,0.011960493422016105
1044,2021-02-26,124.75251007080078,-0.001765272159046427
1045,2021-03-01,125.26083374023438,0.0040746568477467715
1046,2021-03-02,125.02104949951172,-0.0019142794564175336
1047,2021-03-03,125.69241333007812,0.005370006356961721
1048,2021-03-04,125.06898498535156,-0.004959952062415951
1049,2021-03-05,128.60813903808594,0.028297615537128396
1050,2021-03-08,132.0801239013672,0.026996618481922585
1051,2021-03-09,132.06097412109375,-0.00014498608653434886
1052,2021-03-10,133.68190002441406,0.012274071989155644
1053,2021-03-11,133.68190002441406,0.0
1054,2021-03-12,135.0150909423828,0.009972860332814415
1055,2021-03-15,136.31944274902344,0.009660785305823705
1056,2021-03-16,134.75607299804688,-0.011468428270022146
1057,2021-03-17,135.5041961669922,0.005551684256606126
1058,2021-03-18,135.72479248046875,0.0016279666587202257
1059,2021-03-19,133.61473083496094,-0.015546619058647404
1060,2021-03-22,135.801513671875,0.016366330443124077
1061,2021-03-23,135.0150909423828,-0.00579097175155463
1062,2021-03-24,136.04127502441406,0.007600513948986309
1063,2021-03-25,136.64552307128906,0.00444165233504723
1064,2021-03-26,138.8994903564453,0.01649499547804667
1065,2021-03-29,138.85154724121094,-0.0003451640831175773
1066,2021-03-30,137.23060607910156,-0.011673915014382197
1067,2021-03-31,135.8782196044922,-0.009854845892248276
1068,2021-04-01,137.98831176757812,0.015529289162221183
1069,2021-04-05,138.77476501464844,0.005699419298606845
1070,2021-04-06,140.00247192382812,0.008846759056303277
1071,2021-04-07,137.71978759765625,-0.016304600160301663
1072,2021-04-08,137.80609130859375,0.0006266616616461551
1073,2021-04-09,139.263916015625,0.010578811815848521
1074,2021-04-12,140.23265075683594,0.006956107288425217
1075,2021-04-13,140.34776306152344,0.0008208666388764829
1076,2021-04-14,139.8489990234375,-0.0035537726231326117
1077,2021-04-15,141.18218994140625,0.009533074439419531
1078,2021-04-16,142.0261993408203,0.005978157724882527
1079,2021-04-19,143.58956909179688,0.011007615202213161
1080,2021-04-20,144.27053833007812,0.004742470101333884
1081,2021-04-21,145.72840881347656,0.010105115710201007
1082,2021-04-22,143.93484497070312,-0.012307578579747513
1083,2021-04-23,145.25845336914062,0.0091958858100476
1084,2021-04-26,144.75010681152344,-0.003499600510858736
1085,2021-04-27,145.8077850341797,0.007306925334662706
1086,2021-04-28,145.30780029296875,-0.003429067529513108
1087,2021-04-29,145.11549377441406,-0.0013234425004504669
1088,2021-04-30,145.00973510742188,-0.0007287896298419083
1089,2021-05-03,146.59629821777344,0.010941079984569724
1090,2021-05-04,149.05780029296875,0.016791024774299945
1091,2021-05-05,148.25009155273438,-0.0054187619745282856
1092,2021-05-06,150.50013732910156,0.01517736517259971
1093,2021-05-07,151.50009155273438,0.006644208047771993
1094,2021-05-10,149.50013732910156,-0.013201010000292057
1095,2021-05-11,148.06741333007812,-0.009583429317322367
1096,2021-05-12,145.77894592285156,-0.015455577670726361
1097,2021-05-13,148.6731719970703,0.019853525870261235
1098,2021-05-14,147.63470458984375,-0.006984901130965504
1099,2021-05-17,147.2212677001953,-0.0028004044902385505
1100,2021-05-18,145.11549377441406,-0.014303462799067135
1101,2021-05-19,143.78855895996094,-0.009143991312987487
1102,2021-05-20,143.98086547851562,0.001337425730848496
1103,2021-05-21,143.87510681152344,-0.0007345327911504329
1104,2021-05-24,143.51931762695312,-0.0024729030091105164
1105,2021-05-25,142.04820251464844,-0.010250293386486975
1106,2021-05-26,142.17315673828125,0.0008796607167198545
1107,2021-05-27,141.12509155273438,-0.007371751528850168
1108,2021-05-28,141.64431762695312,0.0036791903445796414
1109,2021-06-01,141.2308807373047,-0.002918838514491595
1110,2021-06-02,140.0578155517578,-0.008306010551111909
1111,2021-06-03,139.8077850341797,-0.0017851950395850746
1112,2021-06-04,139.9616241455078,0.0011003615520446264
1113,2021-06-07,137.03857421875,-0.020884652808250692
1114,2021-06-08,137.2885284423828,0.0018239698205981814
1115,2021-06-09,136.7020263671875,-0.004272039928240989
1116,2021-06-10,139.41355895996094,0.01983535039553952
1117,2021-06-11,140.22125244140625,0.005793507370952966
1118,2021-06-14,137.97125244140625,-0.0160460697706305
1119,2021-06-15,138.77894592285156,0.005854070809339973
1120,2021-06-16,137.13470458984375,-0.011847916282069604
1121,2021-06-17,136.06739807128906,-0.007782906024750624
1122,2021-06-18,134.71163940429688,-0.009963875889519636
1123,2021-06-21,136.13470458984375,0.010563787894199539
1124,2021-06-22,136.1827850341797,0.00035318286017371747
1125,2021-06-23,134.77896118164062,-0.010308379669183076
1126,2021-06-24,134.78854370117188,7.109803672045167e-05
1127,2021-06-25,135.50009155273438,0.005278993540727139
1128,2021-06-28,135.29818725585938,-0.0014900676048357209
1129,2021-06-29,134.8847198486328,-0.0030559715219588
1130,2021-06-30,135.4231719970703,0.003991943261191899
1131,2021-07-01,135.6923828125,0.0019879228307804198
1132,2021-07-02,135.0097198486328,-0.005030960100468551
1133,2021-07-06,134.66355895996094,-0.0025639701279284166
1134,2021-07-07,135.5962371826172,0.006925988217299173
1135,2021-07-08,133.91358947753906,-0.012409250728779297
1136,2021-07-09,135.7501220703125,0.013714310847305455
1137,2021-07-12,135.01931762695312,-0.0053834533053374045
1138,2021-07-13,133.17318725585938,-0.013673083256089735
1139,2021-07-14,133.115478515625,-0.0004333360297482658
1140,2021-07-15,133.23085021972656,0.0008667038979093267
1141,2021-07-16,133.69239807128906,0.00346427160677365
1142,2021-07-19,131.85586547851562,-0.013737000901084429
1143,2021-07-20,131.7500762939453,-0.0008023092805647947
1144,2021-07-21,130.82699584960938,-0.007006299125599469
1145,2021-07-22,129.490478515625,-0.010215913965652468
1146,2021-07-23,131.00010681152344,0.011658218528525
1147,2021-07-26,131.4616241455078,0.003523030211329381
1148,2021-07-27,131.50010681152344,0.0002927292756784716
1149,2021-07-28,132.3558349609375,0.00650743311289137
1150,2021-07-29,133.70201110839844,0.010170886291928305
1151,2021-07-30,123.96163177490234,-0.07285140479748742
1152,2021-08-02,124.91354370117188,0.00767908515433291
1153,2021-08-03,124.0456314086914,-0.006948103998688504
1154,2021-08-04,122.2519073486328,-0.014460195330449399
1155,2021-08-05,122.95590209960938,0.005758558424523885
1156,2021-08-06,123.85275268554688,0.007294083249545391
1157,2021-08-09,125.4439468383789,0.012847466998751056
1158,2021-08-10,124.59528350830078,-0.006765279245969036
1159,2021-08-11,126.93870544433594,0.018808271629953355
1160,2021-08-12,127.9512710571289,0.007976807461905322
1161,2021-08-13,128.30812072753906,0.002788949788945949
1162,2021-08-16,128.14418029785156,-0.001277708914742992
1163,2021-08-17,128.26950073242188,0.0009779643076963662
1164,2021-08-18,127.34373474121094,-0.007217350858347404
