Date,Adj Close
2017-01-03,66.14826202392578
2017-01-04,67.24439239501953
2017-01-05,66.55591583251953
2017-01-06,66.58305358886719
2017-01-09,66.74613189697266
2017-01-10,65.96707153320312
2017-01-11,66.16637420654297
2017-01-12,66.42904663085938
2017-01-13,66.58305358886719
2017-01-17,66.43812561035156
2017-01-18,66.5649642944336
2017-01-19,65.88555145263672
2017-01-20,64.89810180664062
2017-01-23,65.63190460205078
2017-01-24,66.61933898925781
2017-01-25,66.5196762084961
2017-01-26,66.42000579833984
2017-01-27,66.52872467041016
2017-01-30,66.18296813964844
2017-01-31,66.39224243164062
2017-02-01,67.27479553222656
2017-02-02,66.71978759765625
2017-02-03,67.12924194335938
2017-02-06,66.73799133300781
2017-02-07,66.17388153076172
2017-02-08,66.9199447631836
2017-02-09,66.93815612792969
2017-02-10,68.04817962646484
2017-02-13,67.72064971923828
2017-02-14,67.17471313476562
2017-02-15,66.60150146484375
2017-02-16,67.5113754272461
2017-02-17,67.23841094970703
2017-02-21,67.86618041992188
2017-02-22,67.56597137451172
2017-02-23,67.43858337402344
2017-02-24,67.65694427490234
2017-02-27,67.76612854003906
2017-02-28,67.79341888427734
2017-03-01,69.20367431640625
2017-03-02,68.97623443603516
2017-03-03,69.1855239868164
2017-03-06,68.83067321777344
2017-03-07,68.6668930053711
2017-03-08,69.0945053100586
2017-03-09,69.01262664794922
2017-03-10,69.86791229248047
2017-03-13,69.83151245117188
2017-03-14,69.63134002685547
2017-03-15,70.27734375
2017-03-16,70.04078674316406
2017-03-17,70.1317367553711
2017-03-20,70.82322692871094
2017-03-21,69.84968566894531
2017-03-22,69.92250061035156
2017-03-23,70.2045669555664
2017-03-24,69.71322631835938
2017-03-27,69.71322631835938
2017-03-28,70.12266540527344
2017-03-29,70.0953598022461
2017-03-30,69.93158721923828
2017-03-31,70.04988098144531
2017-04-03,69.55854797363281
2017-04-04,69.82240295410156
2017-04-05,69.22190856933594
2017-04-06,69.63134002685547
2017-04-07,69.29470825195312
2017-04-10,69.95886993408203
2017-04-11,69.98617553710938
2017-04-12,69.35839080810547
2017-04-13,68.96714782714844
2017-04-17,70.30463409423828
2017-04-18,70.57757568359375
2017-04-19,70.55938720703125
2017-04-20,70.8050537109375
2017-04-21,70.95970153808594
2017-04-24,71.24176788330078
2017-04-25,71.63301086425781
2017-04-26,72.18802642822266
2017-04-27,71.68762969970703
2017-04-28,73.06149291992188
2017-05-01,72.83311462402344
2017-05-02,73.26245880126953
2017-05-03,73.49085998535156
2017-05-04,74.34954071044922
2017-05-05,74.82452392578125
2017-05-08,75.37264251708984
2017-05-09,75.3452377319336
2017-05-10,75.70149993896484
2017-05-11,75.39091491699219
2017-05-12,75.299560546875
2017-05-15,75.48226165771484
2017-05-16,75.62841033935547
2017-05-17,75.16252899169922
2017-05-18,75.0346450805664
2017-05-19,75.23560333251953
2017-05-22,75.67408752441406
2017-05-23,75.99382019042969
2017-05-24,76.176513671875
2017-05-25,76.87078094482422
2017-05-26,77.07176208496094
2017-05-30,77.22704315185547
2017-05-31,77.65637969970703
2017-06-01,78.79824829101562
2017-06-02,78.86219787597656
2017-06-05,78.42372131347656
2017-06-06,78.08573913574219
2017-06-07,78.27754974365234
2017-06-08,77.8756103515625
2017-06-09,78.24103546142578
2017-06-12,78.04920196533203
2017-06-13,78.72516632080078
2017-06-14,78.78912353515625
2017-06-15,78.77084350585938
2017-06-16,78.51508331298828
2017-06-19,79.24588012695312
2017-06-20,79.37376403808594
2017-06-21,79.47425079345703
2017-06-22,79.309814453125
2017-06-23,79.29155731201172
2017-06-26,79.60213470458984
2017-06-27,78.89874267578125
2017-06-28,79.41029357910156
2017-06-29,79.00836181640625
2017-06-30,79.34634399414062
2017-07-03,79.54732513427734
2017-07-05,79.73916625976562
2017-07-06,79.75743103027344
2017-07-07,80.46993255615234
2017-07-10,80.66179656982422
2017-07-11,80.54302978515625
2017-07-12,81.2829818725586
2017-07-13,80.96324157714844
2017-07-14,81.69403076171875
2017-07-17,82.02289581298828
2017-07-18,81.97721099853516
2017-07-19,82.29695129394531
2017-07-20,81.94068145751953
2017-07-21,81.76713562011719
2017-07-24,82.0146484375
2017-07-25,81.3087387084961
2017-07-26,80.73116302490234
2017-07-27,80.6761703491211
2017-07-28,75.45974731445312
2017-07-31,74.19454956054688
2017-08-01,75.64308166503906
2017-08-02,75.40470123291016
2017-08-03,75.40470123291016
2017-08-04,75.50553131103516
2017-08-07,75.85391998291016
2017-08-08,75.85391998291016
2017-08-09,75.61556243896484
2017-08-10,74.7262954711914
2017-08-11,75.3038558959961
2017-08-14,76.00978088378906
2017-08-15,75.86309051513672
2017-08-16,76.59648895263672
2017-08-17,75.29468536376953
2017-08-18,75.3130111694336
2017-08-21,74.70795440673828
2017-08-22,75.28553771972656
2017-08-23,74.81794738769531
2017-08-24,74.33209991455078
2017-08-25,75.53305053710938
2017-08-28,75.04714965820312
2017-08-29,75.1755142211914
2017-08-30,76.06475830078125
2017-08-31,76.65151977539062
2017-09-01,76.8990478515625
2017-09-05,76.32147979736328
2017-09-06,75.95478057861328
2017-09-07,76.65151977539062
2017-09-08,76.84402465820312
2017-09-11,78.03585815429688
2017-09-12,78.10917663574219
2017-09-13,77.46744537353516
2017-09-14,77.8066635131836
2017-09-15,77.65999603271484
2017-09-18,78.32923126220703
2017-09-19,78.43923950195312
2017-09-20,78.95262145996094
2017-09-21,78.98011779785156
2017-09-22,78.58589172363281
2017-09-25,79.53936004638672
2017-09-26,79.53018188476562
2017-09-27,79.33769226074219
2017-09-28,79.83271789550781
2017-09-29,79.12681579589844
2017-10-02,80.56611633300781
2017-10-03,81.07035064697266
2017-10-04,80.80451965332031
2017-10-05,80.80451965332031
2017-10-06,81.20787811279297
2017-10-09,81.09786224365234
2017-10-10,81.10704040527344
2017-10-11,81.00618743896484
2017-10-12,81.12537384033203
2017-10-13,81.44624328613281
2017-10-16,81.5379409790039
2017-10-17,81.57457733154297
2017-10-18,81.22621154785156
2017-10-19,81.26288604736328
2017-10-20,81.77627563476562
2017-10-23,81.62043762207031
2017-10-24,81.70296478271484
2017-10-25,81.12537384033203
2017-10-26,81.5379409790039
2017-10-27,80.61197662353516
2017-10-30,79.26434326171875
2017-10-31,80.1200942993164
2017-11-01,80.43297576904297
2017-11-02,79.6875991821289
2017-11-03,80.0004653930664
2017-11-06,78.9974594116211
2017-11-07,78.87783813476562
2017-11-08,78.8870620727539
2017-11-09,77.9945068359375
2017-11-10,78.13249206542969
2017-11-13,78.75824737548828
2017-11-14,78.77662658691406
2017-11-15,78.6570053100586
2017-11-16,79.23672485351562
2017-11-17,78.81341552734375
2017-11-20,78.64781188964844
2017-11-21,79.63240814208984
2017-11-22,78.9974594116211
2017-11-24,79.36553192138672
2017-11-27,79.81644439697266
2017-11-28,79.97286987304688
2017-11-29,80.57099914550781
2017-11-30,81.3531494140625
2017-12-01,80.60778045654297
2017-12-04,81.03106689453125
2017-12-05,81.89602661132812
2017-12-06,81.1323013305664
2017-12-07,81.32552337646484
2017-12-08,80.88382720947266
2017-12-11,80.31333923339844
2017-12-12,79.53117370605469
2017-12-13,79.77041625976562
2017-12-14,79.4759750366211
2017-12-15,80.03729248046875
2017-12-18,79.66000366210938
2017-12-19,79.66920471191406
2017-12-20,79.43917083740234
2017-12-21,78.9146728515625
2017-12-22,79.04349517822266
2017-12-26,78.5741958618164
2017-12-27,78.78583526611328
2017-12-28,79.82563781738281
2017-12-29,79.39313507080078
2018-01-02,80.06486511230469
2018-01-03,80.23052215576172
2018-01-04,79.14472198486328
2018-01-05,79.97286987304688
2018-01-08,80.2397232055664
2018-01-09,79.49436950683594
2018-01-10,78.83182525634766
2018-01-11,79.36553192138672
2018-01-12,79.65080261230469
2018-01-16,79.35633850097656
2018-01-17,79.9084243774414
2018-01-18,80.2765121459961
2018-01-19,81.53719329833984
2018-01-22,80.47897338867188
2018-01-23,80.60778045654297
2018-01-24,81.1598892211914
2018-01-25,82.29170989990234
2018-01-26,82.02484893798828
2018-01-29,80.72742462158203
2018-01-30,80.98601531982422
2018-01-31,80.73664093017578
2018-02-01,80.20097351074219
2018-02-02,79.2405014038086
2018-02-05,77.00550079345703
2018-02-06,77.38416290283203
2018-02-07,77.43956756591797
2018-02-08,75.15840911865234
2018-02-09,75.8787841796875
2018-02-12,76.28514099121094
2018-02-13,82.8608169555664
2018-02-14,83.72897338867188
2018-02-15,84.19995880126953
2018-02-16,84.80951690673828
2018-02-20,84.09838104248047
2018-02-21,83.26717376708984
2018-02-22,83.68278503417969
2018-02-23,84.0337142944336
2018-02-26,83.83979034423828
2018-02-27,82.65763854980469
2018-02-28,82.583740234375
2018-03-01,82.19586181640625
2018-03-02,82.8238754272461
2018-03-05,83.48881530761719
2018-03-06,83.83053588867188
2018-03-07,83.24871063232422
2018-03-08,83.07323455810547
2018-03-09,83.92288970947266
2018-03-12,83.83979034423828
2018-03-13,83.5811538696289
2018-03-14,83.18404388427734
2018-03-15,83.37800598144531
2018-03-16,83.25791931152344
2018-03-19,83.08246612548828
2018-03-20,82.91624450683594
2018-03-21,82.74075317382812
2018-03-22,81.23536682128906
2018-03-23,80.13634490966797
2018-03-26,81.46623992919922
2018-03-27,81.34619903564453
2018-03-28,81.60477447509766
2018-03-29,82.96239471435547
2018-04-02,81.2076644897461
2018-04-03,82.71305847167969
2018-04-04,82.8515625
2018-04-05,83.48881530761719
2018-04-06,81.73408508300781
2018-04-09,83.02705383300781
2018-04-10,85.63148498535156
2018-04-11,85.19739532470703
2018-04-12,85.61300659179688
2018-04-13,85.6591567993164
2018-04-16,87.09989929199219
2018-04-17,88.78075408935547
2018-04-18,88.30050659179688
2018-04-19,87.55243682861328
2018-04-20,87.21996307373047
2018-04-23,87.13684844970703
2018-04-24,86.05628967285156
2018-04-25,86.02857971191406
2018-04-26,86.14864349365234
2018-04-27,86.31488037109375
2018-04-30,86.3518295288086
2018-05-01,86.38876342773438
2018-05-02,85.48369598388672
2018-05-03,84.15380096435547
2018-05-04,85.20661926269531
2018-05-07,85.70535278320312
2018-05-08,85.03810119628906
2018-05-09,86.1501693725586
2018-05-10,86.91937255859375
2018-05-11,87.38275146484375
2018-05-14,86.53013610839844
2018-05-15,85.35315704345703
2018-05-16,86.68769836425781
2018-05-17,86.45600891113281
2018-05-18,86.70622253417969
2018-05-21,87.1232681274414
2018-05-22,87.0769271850586
2018-05-23,87.19738006591797
2018-05-24,87.14178466796875
2018-05-25,87.18814086914062
2018-05-29,86.47451782226562
2018-05-30,87.0769271850586
2018-05-31,85.55706024169922
2018-06-01,85.9740982055664
2018-06-04,86.98424530029297
2018-06-05,87.03983306884766
2018-06-06,87.03058624267578
2018-06-07,86.40965270996094
2018-06-08,86.79891204833984
2018-06-11,86.94717407226562
2018-06-12,87.25300598144531
2018-06-13,87.41053771972656
2018-06-14,87.91098022460938
2018-06-15,87.96659851074219
2018-06-18,87.89246368408203
2018-06-19,87.34568786621094
2018-06-20,87.70710754394531
2018-06-21,86.27992248535156
2018-06-22,85.84436798095703
2018-06-25,85.42733764648438
2018-06-26,85.91850280761719
2018-06-27,85.35315704345703
2018-06-28,85.91850280761719
2018-06-29,86.53939819335938
2018-07-02,86.73402404785156
2018-07-03,87.10472869873047
2018-07-05,87.61444854736328
2018-07-06,87.18814086914062
2018-07-09,88.13341522216797
2018-07-10,89.06942749023438
2018-07-11,88.67093658447266
2018-07-12,88.72651672363281
2018-07-13,87.92024230957031
2018-07-16,86.45600891113281
2018-07-17,87.70710754394531
2018-07-18,87.68856048583984
2018-07-19,89.27332305908203
2018-07-20,88.76360321044922
2018-07-23,88.17048645019531
2018-07-24,87.80907440185547
2018-07-25,87.79051208496094
2018-07-26,89.0323486328125
2018-07-27,95.36202239990234
2018-07-30,94.99134826660156
2018-07-31,95.24237823486328
2018-08-01,95.24237823486328
2018-08-02,95.75377655029297
2018-08-03,96.79517364501953
2018-08-06,96.89746856689453
2018-08-07,96.2837905883789
2018-08-08,95.73517608642578
2018-08-09,96.60920715332031
2018-08-10,95.19586944580078
2018-08-13,94.28466796875
2018-08-14,94.82394409179688
2018-08-15,94.22884368896484
2018-08-16,94.53572082519531
2018-08-17,95.5492172241211
2018-08-20,95.64220428466797
2018-08-21,96.0420150756836
2018-08-22,95.93973541259766
2018-08-23,95.68870544433594
2018-08-24,96.51622772216797
2018-08-27,97.20429229736328
2018-08-28,96.59990692138672
2018-08-29,97.35307312011719
2018-08-30,97.35307312011719
2018-08-31,97.36238861083984
2018-09-04,98.91520690917969
2018-09-05,100.58890533447266
2018-09-06,101.30485534667969
2018-09-07,100.32854461669922
2018-09-10,100.94223022460938
2018-09-11,100.90503692626953
2018-09-12,101.71397399902344
2018-09-13,103.04364013671875
2018-09-14,104.11294555664062
2018-09-17,103.4899673461914
2018-09-18,103.75961303710938
2018-09-19,103.33189392089844
2018-09-20,102.7367935180664
2018-09-21,102.57872009277344
2018-09-24,102.63450622558594
2018-09-25,101.12820434570312
2018-09-26,100.97942352294922
2018-09-27,100.73767852783203
2018-09-28,100.17976379394531
2018-10-01,100.20767974853516
2018-10-02,100.56099700927734
2018-10-03,100.4215316772461
2018-10-04,99.57538604736328
2018-10-05,99.64977264404297
2018-10-08,100.11468505859375
2018-10-09,98.301513671875
2018-10-10,95.23307037353516
2018-10-11,94.4427261352539
2018-10-12,94.51709747314453
2018-10-15,94.98202514648438
2018-10-16,98.18993377685547
2018-10-17,97.65064239501953
2018-10-18,96.95325469970703
2018-10-19,96.999755859375
2018-10-22,96.67430114746094
2018-10-23,96.40465545654297
2018-10-24,93.05728149414062
2018-10-25,94.18238067626953
2018-10-26,93.31763458251953
2018-10-29,93.13166046142578
2018-10-30,94.57780456542969
2018-10-31,95.1282730102539
2018-11-01,96.26652526855469
2018-11-02,96.84500122070312
2018-11-05,95.0536117553711
2018-11-06,97.1248779296875
2018-11-07,98.06719970703125
2018-11-08,98.08586883544922
2018-11-09,97.30216217041016
2018-11-12,94.95099639892578
2018-11-13,95.5201187133789
2018-11-14,95.24022674560547
2018-11-15,97.76862335205078
2018-11-16,99.15880584716797
2018-11-19,98.13253784179688
2018-11-20,97.3208236694336
2018-11-21,96.56509399414062
2018-11-23,96.93827056884766
2018-11-26,96.74237060546875
2018-11-27,95.44549560546875
2018-11-28,97.05955505371094
2018-11-29,96.89163970947266
2018-11-30,97.07823944091797
2018-12-03,97.46076202392578
2018-12-04,96.04261016845703
2018-12-06,94.82037353515625
2018-12-07,93.08502197265625
2018-12-10,92.46923065185547
2018-12-11,92.05872344970703
2018-12-12,93.23426818847656
2018-12-13,93.59814453125
2018-12-14,93.6168212890625
2018-12-17,92.03072357177734
2018-12-18,91.37762451171875
2018-12-19,89.18509674072266
2018-12-20,88.6439437866211
2018-12-21,87.2817611694336
2018-12-24,83.68974304199219
2018-12-26,85.62101745605469
2018-12-27,86.18083953857422
2018-12-28,86.48873138427734
2018-12-31,87.76692962646484
2019-01-02,84.1375732421875
2019-01-03,83.12060546875
2019-01-04,84.96795654296875
2019-01-07,85.78897094726562
2019-01-08,87.25379180908203
2019-01-09,87.21646881103516
2019-01-10,88.24275207519531
2019-01-11,88.38272094726562
2019-01-14,87.66429138183594
2019-01-15,88.45733642578125
2019-01-16,88.3640365600586
2019-01-17,89.5022964477539
2019-01-18,91.1443862915039
2019-01-22,89.9781494140625
2019-01-23,90.85516357421875
2019-01-24,90.62190246582031
2019-01-25,90.86448669433594
2019-01-28,91.32164001464844
2019-01-29,91.69612884521484
2019-01-30,91.7148666381836
2019-01-31,92.8009262084961
2019-02-01,93.2035140991211
2019-02-04,93.48439025878906
2019-02-05,94.62661743164062
2019-02-06,95.11344909667969
2019-02-07,95.45050048828125
2019-02-08,94.92618560791016
2019-02-11,95.2164306640625
2019-02-12,95.79692840576172
2019-02-13,96.2463150024414
2019-02-14,95.2819595336914
2019-02-15,95.44113159179688
2019-02-19,95.07600402832031
2019-02-20,95.74075317382812
2019-02-21,96.54592895507812
2019-02-22,95.54412841796875
2019-02-25,95.08535766601562
2019-02-26,94.8512954711914
2019-02-27,94.9449462890625
2019-02-28,95.24456024169922
2019-03-01,94.38318634033203
2019-03-04,95.1321792602539
2019-03-05,95.00110626220703
2019-03-06,94.08358764648438
2019-03-07,93.51246643066406
2019-03-08,94.06485748291016
2019-03-11,95.51603698730469
2019-03-12,95.74075317382812
2019-03-13,95.75946807861328
2019-03-14,96.33058166503906
2019-03-15,96.4803695678711
2019-03-18,97.09827423095703
2019-03-19,96.99532318115234
2019-03-20,97.32300567626953
2019-03-21,98.8116226196289
2019-03-22,97.21064758300781
2019-03-25,97.84729766845703
2019-03-26,98.718017578125
2019-03-27,98.79290771484375
2019-03-28,99.42019653320312
2019-03-29,99.60742950439453
2019-04-01,100.84329223632812
2019-04-02,100.384521484375
2019-04-03,100.61857604980469
2019-04-04,101.20844268798828
2019-04-05,101.80762481689453
2019-04-08,102.04168701171875
2019-04-09,101.26461029052734
2019-04-10,102.0885009765625
2019-04-11,102.66897583007812
2019-04-12,103.27753448486328
2019-04-15,102.88429260253906
2019-04-16,102.63153839111328
2019-04-17,100.83393096923828
2019-04-18,101.31140899658203
2019-04-22,101.98551940917969
2019-04-23,103.04346466064453
2019-04-24,102.9311294555664
2019-04-25,102.47237396240234
2019-04-26,104.31676483154297
2019-04-29,104.22313690185547
2019-04-30,104.48616790771484
2019-05-01,105.9608154296875
2019-05-02,106.13932800292969
2019-05-03,106.93768310546875
2019-05-06,108.0366439819336
2019-05-07,107.0503921508789
2019-05-08,107.06918334960938
2019-05-09,106.13932800292969
2019-05-10,106.70285034179688
2019-05-13,105.9514389038086
2019-05-14,106.12049102783203
2019-05-15,106.3647232055664
2019-05-16,107.1819076538086
2019-05-17,106.8719482421875
2019-05-20,106.17684936523438
2019-05-21,106.59015655517578
2019-05-22,106.28018951416016
2019-05-23,106.10173797607422
2019-05-24,106.07352447509766
2019-05-28,106.04535675048828
2019-05-29,105.8575210571289
2019-05-30,106.61831665039062
2019-05-31,106.39289855957031
2019-06-03,107.10675048828125
2019-06-04,108.69416046142578
2019-06-05,110.01853942871094
2019-06-06,112.93032836914062
2019-06-07,114.51770782470703
2019-06-10,115.73880004882812
2019-06-11,115.13764190673828
2019-06-12,114.23594665527344
2019-06-13,113.39057922363281
2019-06-14,112.79882049560547
2019-06-17,112.87397766113281
2019-06-18,112.2352523803711
2019-06-19,112.16011810302734
2019-06-20,112.53582000732422
2019-06-21,112.13192749023438
2019-06-24,111.568359375
2019-06-25,113.7099380493164
2019-06-26,112.00043487548828
2019-06-27,114.17017364501953
2019-06-28,116.79078674316406
2019-07-01,116.72503662109375
2019-07-02,116.03935241699219
2019-07-03,118.27487182617188
2019-07-05,117.04439544677734
2019-07-08,116.4620590209961
2019-07-09,116.53718566894531
2019-07-10,116.07691192626953
2019-07-11,116.49020385742188
2019-07-12,115.9172592163086
2019-07-15,115.45700073242188
2019-07-16,115.68243408203125
2019-07-17,116.02995300292969
2019-07-18,116.80957794189453
2019-07-19,115.90786743164062
2019-07-22,115.68243408203125
2019-07-23,116.95046997070312
2019-07-24,115.8045425415039
2019-07-25,115.45700073242188
2019-07-26,116.93168640136719
2019-07-29,117.35436248779297
2019-07-30,116.6290283203125
2019-07-31,114.0008316040039
2019-08-01,110.74153900146484
2019-08-02,111.17485046386719
2019-08-05,110.28936004638672
2019-08-06,112.77623748779297
2019-08-07,114.60370635986328
2019-08-08,115.74356079101562
2019-08-09,114.05735778808594
2019-08-12,113.058837890625
2019-08-13,114.18925476074219
2019-08-14,112.18276977539062
2019-08-15,111.46685791015625
2019-08-16,113.27549743652344
2019-08-19,113.24725341796875
2019-08-20,111.98495483398438
2019-08-21,112.40885925292969
2019-08-22,113.54867553710938
2019-08-23,113.2849349975586
2019-08-26,113.97257995605469
2019-08-27,114.45299530029297
2019-08-28,114.7921371459961
2019-08-29,114.63197326660156
2019-08-30,115.13125610351562
2019-09-03,112.71031188964844
2019-09-04,114.86750030517578
2019-09-05,114.1703872680664
2019-09-06,113.86895751953125
2019-09-09,112.19220733642578
2019-09-10,112.20162963867188
2019-09-11,111.74946594238281
2019-09-12,111.20310974121094
2019-09-13,111.53282165527344
2019-09-16,109.72417449951172
2019-09-17,110.22342681884766
2019-09-18,111.4385986328125
2019-09-19,111.01471710205078
2019-09-20,111.20310974121094
2019-09-23,111.25019836425781
2019-09-24,111.63642883300781
2019-09-25,112.21104431152344
2019-09-26,112.02264404296875
2019-09-27,111.78714752197266
2019-09-30,111.57990264892578
2019-10-01,110.84513854980469
2019-10-02,108.65970611572266
2019-10-03,108.32057189941406
2019-10-04,110.52488708496094
2019-10-07,109.79953002929688
2019-10-08,108.12275695800781
2019-10-09,109.72417449951172
2019-10-10,109.56401062011719
2019-10-11,109.58287048339844
2019-10-14,109.13069915771484
2019-10-15,108.49957275390625
2019-10-16,108.77274322509766
2019-10-17,109.79010772705078
2019-10-18,110.94876861572266
2019-10-21,111.06179809570312
2019-10-22,109.89373016357422
2019-10-23,110.56253051757812
2019-10-24,110.53429412841797
2019-10-25,111.04296875
2019-10-28,111.34440612792969
2019-10-29,111.97745513916016
2019-10-30,112.67667388916016
2019-10-31,111.6373062133789
2019-11-01,104.68301391601562
2019-11-04,102.67987823486328
2019-11-05,102.67044067382812
2019-11-06,103.45465850830078
2019-11-07,103.36963653564453
2019-11-08,102.9916763305664
2019-11-11,102.59484100341797
2019-11-12,102.25468444824219
2019-11-13,103.57752227783203
2019-11-14,104.38066864013672
2019-11-15,103.89877319335938
2019-11-18,104.2578125
2019-11-19,104.40898132324219
2019-11-20,104.59798431396484
2019-11-21,105.16490173339844
2019-11-22,104.04995727539062
2019-11-25,104.83419036865234
2019-11-26,106.35543060302734
2019-11-27,106.61058044433594
2019-11-29,105.93968200683594
2019-12-02,105.83573913574219
2019-12-03,106.49720001220703
2019-12-04,105.61843872070312
2019-12-05,105.7790756225586
2019-12-06,105.90189361572266
2019-12-09,106.42158508300781
2019-12-10,105.76962280273438
2019-12-11,106.36490631103516
2019-12-12,107.88614654541016
2019-12-13,107.68772888183594
2019-12-16,108.01844024658203
2019-12-17,107.10189819335938
2019-12-18,106.8467788696289
2019-12-19,107.01687622070312
2019-12-20,108.6231460571289
2019-12-23,109.01056671142578
2019-12-24,108.40583801269531
2019-12-26,108.4908676147461
2019-12-27,108.67985534667969
2019-12-30,109.37905883789062
2019-12-31,109.24677276611328
2020-01-02,107.41370391845703
2020-01-03,107.75386810302734
2020-01-06,107.76331329345703
2020-01-07,106.6861572265625
2020-01-08,106.97907257080078
2020-01-09,108.3396987915039
2020-01-10,109.40742492675781
2020-01-13,109.7947998046875
2020-01-14,109.7286605834961
2020-01-15,110.27670288085938
2020-01-16,111.70345306396484
2020-01-17,110.85306549072266
2020-01-21,109.25621032714844
2020-01-22,109.29402923583984
2020-01-23,110.90032958984375
2020-01-24,110.6640853881836
2020-01-27,110.06880950927734
2020-01-28,109.91716003417969
2020-01-29,109.88872528076172
2020-01-30,110.45741271972656
2020-01-31,109.4811782836914
2020-02-03,111.12088775634766
2020-02-04,110.84602355957031
2020-02-05,111.71800231933594
2020-02-06,111.395751953125
2020-02-07,110.60906219482422
2020-02-10,109.75605010986328
2020-02-11,109.99300384521484
2020-02-12,108.72293090820312
2020-02-13,110.1351547241211
2020-02-14,110.58062744140625
2020-02-18,109.24422454833984
2020-02-19,109.00727081298828
2020-02-20,108.93144226074219
2020-02-21,106.13542175292969
2020-02-24,103.50999450683594
2020-02-25,101.35848236083984
2020-02-26,99.2164306640625
2020-02-27,97.05542755126953
2020-02-28,95.79484558105469
2020-03-02,98.17384338378906
2020-03-03,97.39663696289062
2020-03-04,101.83238983154297
2020-03-05,98.5529556274414
2020-03-06,101.69967651367188
2020-03-09,96.1550064086914
2020-03-10,98.56245422363281
2020-03-11,93.9087142944336
2020-03-12,89.47298431396484
2020-03-13,91.3591079711914
2020-03-16,83.29326629638672
2020-03-17,91.41597747802734
2020-03-18,91.70030212402344
2020-03-19,93.71916198730469
2020-03-20,87.6816177368164
2020-03-23,79.54943084716797
2020-03-24,83.46387481689453
2020-03-25,85.47322082519531
2020-03-26,91.17902374267578
2020-03-27,89.0938491821289
2020-03-30,95.23564910888672
2020-03-31,94.34471130371094
2020-04-01,91.18851470947266
2020-04-02,91.13163757324219
2020-04-03,89.27392578125
2020-04-06,95.50103759765625
2020-04-07,95.84223937988281
2020-04-08,98.67618560791016
2020-04-09,101.67124938964844
2020-04-13,97.0080337524414
2020-04-14,98.59086608886719
2020-04-15,95.66215515136719
2020-04-16,96.53413391113281
2020-04-17,97.5672378540039
2020-04-20,101.35848236083984
2020-04-21,100.58126831054688
2020-04-22,100.75189208984375
2020-04-23,99.5386734008789
2020-04-24,98.6856460571289
2020-04-27,106.7041015625
2020-04-28,105.7152328491211
2020-04-29,104.66929626464844
2020-04-30,101.81672668457031
2020-05-01,100.92296600341797
2020-05-04,101.56002044677734
2020-05-05,100.37146759033203
2020-05-06,99.70586395263672
2020-05-07,100.28588104248047
2020-05-08,102.24462127685547
2020-05-11,101.08457946777344
2020-05-12,98.84060668945312
2020-05-13,97.38580322265625
2020-05-14,97.42383575439453
2020-05-15,96.51102447509766
2020-05-18,99.03076171875
2020-05-19,98.63141632080078
2020-05-20,99.27796936035156
2020-05-21,99.924560546875
2020-05-22,99.93406677246094
2020-05-26,104.16534423828125
2020-05-27,107.01789093017578
2020-05-28,106.11458587646484
2020-05-29,105.9148941040039
2020-06-01,105.94342041015625
2020-06-02,106.56147003173828
2020-06-03,107.71199798583984
2020-06-04,106.6280288696289
2020-06-05,107.82608795166016
2020-06-08,107.99725341796875
2020-06-09,106.94182586669922
2020-06-10,106.15261840820312
2020-06-11,99.12586212158203
2020-06-12,100.18128204345703
2020-06-15,100.22883605957031
2020-06-16,102.11151885986328
2020-06-17,101.65510559082031
2020-06-18,101.73116302490234
2020-06-19,102.31118774414062
2020-06-22,102.2636489868164
2020-06-23,102.15907287597656
2020-06-24,100.73278045654297
2020-06-25,102.31118774414062
2020-06-26,102.42530059814453
2020-06-29,103.88009643554688
2020-06-30,106.47589874267578
2020-07-01,106.95132446289062
2020-07-02,109.31891632080078
2020-07-06,109.59468078613281
2020-07-07,109.49008178710938
2020-07-08,107.37921142578125
2020-07-09,108.16841125488281
2020-07-10,109.29991149902344
2020-07-13,107.85462951660156
2020-07-14,110.59307098388672
2020-07-15,112.10491180419922
2020-07-16,111.47735595703125
2020-07-17,113.53119659423828
2020-07-20,113.42660522460938
2020-07-21,112.37113189697266
2020-07-22,112.67542266845703
2020-07-23,112.61837768554688
2020-07-24,113.00822448730469
2020-07-27,113.95907592773438
2020-07-28,112.58573150634766
2020-07-29,113.31053924560547
2020-07-30,112.45221710205078
2020-07-31,109.86763763427734
2020-08-03,113.1675033569336
2020-08-04,113.12934112548828
2020-08-05,112.88137817382812
2020-08-06,112.21378326416016
2020-08-07,113.73017120361328
2020-08-10,111.58432006835938
2020-08-11,111.33635711669922
2020-08-12,112.62386322021484
2020-08-13,113.03398132324219
2020-08-14,113.00535583496094
2020-08-17,112.77647399902344
2020-08-18,112.42359161376953
2020-08-19,112.24239349365234
2020-08-20,112.1088638305664
2020-08-21,112.34730529785156
2020-08-24,113.59667205810547
2020-08-25,112.66204071044922
2020-08-26,113.11027526855469
2020-08-27,114.49315643310547
2020-08-28,112.66204071044922
2020-08-31,112.90998077392578
2020-09-01,113.96861267089844
2020-09-02,116.60084533691406
2020-09-03,113.65388488769531
2020-09-04,113.2247085571289
2020-09-08,110.68782806396484
2020-09-09,112.43314361572266
2020-09-10,111.76553344726562
2020-09-11,112.88137817382812
2020-09-14,113.56804656982422
2020-09-15,112.85274505615234
2020-09-16,112.31867980957031
2020-09-17,110.59247589111328
2020-09-18,109.71504211425781
2020-09-21,108.19865417480469
2020-09-22,109.03792572021484
2020-09-23,106.94927978515625
2020-09-24,107.06372833251953
2020-09-25,106.91114044189453
2020-09-28,107.15911102294922
2020-09-29,107.40706634521484
2020-09-30,107.96021270751953
2020-10-01,108.43707275390625
2020-10-02,107.62641906738281
2020-10-05,109.24774169921875
2020-10-06,109.25726318359375
2020-10-07,109.65782165527344
2020-10-08,111.12654113769531
2020-10-09,111.40312194824219
2020-10-12,112.57617950439453
2020-10-13,112.11840057373047
2020-10-14,111.0502700805664
2020-10-15,110.95487976074219
2020-10-16,110.96442413330078
2020-10-19,109.81995391845703
2020-10-20,111.54617309570312
2020-10-21,112.2900619506836
2020-10-22,112.83370971679688
2020-10-23,112.87183380126953
2020-10-26,112.02304077148438
2020-10-27,110.63591003417969
2020-10-28,107.46939086914062
2020-10-29,108.04341888427734
2020-10-30,109.1435317993164
2020-11-02,113.06580352783203
2020-11-03,114.37638092041016
2020-11-04,113.88849639892578
2020-11-05,117.58113861083984
2020-11-06,118.24121856689453
2020-11-09,117.82986450195312
2020-11-10,122.0773696899414
2020-11-11,119.83881378173828
2020-11-12,118.8821792602539
2020-11-13,119.64749145507812
2020-11-16,121.3598861694336
2020-11-17,121.83820343017578
2020-11-18,120.89112854003906
2020-11-19,121.71385192871094
2020-11-20,122.2686996459961
2020-11-23,121.3598861694336
2020-11-24,122.33565521240234
2020-11-25,120.8145980834961
2020-11-27,121.72340393066406
2020-11-30,120.8432846069336
2020-12-01,122.27826690673828
2020-12-02,120.78589630126953
2020-12-03,120.41280364990234
2020-12-04,122.14432525634766
2020-12-07,123.05313873291016
2020-12-08,123.58885192871094
2020-12-09,123.91410827636719
2020-12-10,124.81336212158203
2020-12-11,124.79422760009766
2020-12-14,122.84268188476562
2020-12-15,124.61246490478516
2020-12-16,125.41606903076172
2020-12-17,127.36761474609375
2020-12-18,128.28599548339844
2020-12-21,129.04176330566406
2020-12-22,128.66864013671875
2020-12-23,128.69737243652344
2020-12-24,129.8166046142578
2020-12-28,129.79747009277344
2020-12-29,129.4435272216797
2020-12-30,130.47669982910156
2020-12-31,130.9550018310547
2021-01-04,128.19033813476562
2021-01-05,127.9033203125
2021-01-06,131.74903869628906
2021-01-07,133.6431884765625
2021-01-08,133.04051208496094
2021-01-11,132.77264404296875
2021-01-12,132.16041564941406
2021-01-13,132.57174682617188
2021-01-14,133.40402221679688
2021-01-15,132.81092834472656
2021-01-19,131.30894470214844
2021-01-20,134.5232696533203
2021-01-21,132.12213134765625
2021-01-22,132.19863891601562
2021-01-25,133.5188446044922
2021-01-26,133.1735382080078
2021-01-27,127.8024673461914
2021-01-28,129.72073364257812
2021-01-29,127.53395080566406
2021-02-01,128.60813903808594
2021-02-02,131.3416290283203
2021-02-03,130.97715759277344
2021-02-04,132.35829162597656
2021-02-05,134.90956115722656
2021-02-08,136.17556762695312
2021-02-09,136.3578338623047
2021-02-10,137.39366149902344
2021-02-11,137.1251220703125
2021-02-12,138.71725463867188
2021-02-16,137.72935485839844
2021-02-17,137.3553009033203
2021-02-18,135.22608947753906
2021-02-19,126.83379364013672
2021-02-22,123.8221664428711
2021-02-23,123.0356674194336
2021-02-24,123.49604797363281
2021-02-25,124.9731216430664
2021-02-26,124.75251007080078
2021-03-01,125.26083374023438
2021-03-02,125.02104949951172
2021-03-03,125.69241333007812
2021-03-04,125.06898498535156
2021-03-05,128.60813903808594
2021-03-08,132.0801239013672
2021-03-09,132.06097412109375
2021-03-10,133.68190002441406
2021-03-11,133.68190002441406
2021-03-12,135.0150909423828
2021-03-15,136.31944274902344
2021-03-16,134.75607299804688
2021-03-17,135.5041961669922
2021-03-18,135.72479248046875
2021-03-19,133.61473083496094
2021-03-22,135.801513671875
2021-03-23,135.0150909423828
2021-03-24,136.04127502441406
2021-03-25,136.64552307128906
2021-03-26,138.8994903564453
2021-03-29,138.85154724121094
2021-03-30,137.23060607910156
2021-03-31,135.8782196044922
2021-04-01,137.98831176757812
2021-04-05,138.77476501464844
2021-04-06,140.00247192382812
2021-04-07,137.71978759765625
2021-04-08,137.80609130859375
2021-04-09,139.263916015625
2021-04-12,140.23265075683594
2021-04-13,140.34776306152344
2021-04-14,139.8489990234375
2021-04-15,141.18218994140625
2021-04-16,142.0261993408203
2021-04-19,143.58956909179688
2021-04-20,144.27053833007812
2021-04-21,145.72840881347656
2021-04-22,143.93484497070312
2021-04-23,145.25845336914062
2021-04-26,144.75010681152344
2021-04-27,145.8077850341797
2021-04-28,145.30780029296875
2021-04-29,145.11549377441406
2021-04-30,145.00973510742188
2021-05-03,146.59629821777344
2021-05-04,149.05780029296875
2021-05-05,148.25009155273438
2021-05-06,150.50013732910156
2021-05-07,151.50009155273438
2021-05-10,149.50013732910156
2021-05-11,148.06741333007812
2021-05-12,145.77894592285156
2021-05-13,148.6731719970703
2021-05-14,147.63470458984375
2021-05-17,147.2212677001953
2021-05-18,145.11549377441406
2021-05-19,143.78855895996094
2021-05-20,143.98086547851562
2021-05-21,143.87510681152344
2021-05-24,143.51931762695312
2021-05-25,142.04820251464844
2021-05-26,142.17315673828125
2021-05-27,141.12509155273438
2021-05-28,141.64431762695312
2021-06-01,141.2308807373047
2021-06-02,140.0578155517578
2021-06-03,139.8077850341797
2021-06-04,139.9616241455078
2021-06-07,137.03857421875
2021-06-08,137.2885284423828
2021-06-09,136.7020263671875
2021-06-10,139.41355895996094
2021-06-11,140.22125244140625
2021-06-14,137.97125244140625
2021-06-15,138.77894592285156
2021-06-16,137.13470458984375
2021-06-17,136.06739807128906
2021-06-18,134.71163940429688
2021-06-21,136.13470458984375
2021-06-22,136.1827850341797
2021-06-23,134.77896118164062
2021-06-24,134.78854370117188
2021-06-25,135.50009155273438
2021-06-28,135.29818725585938
2021-06-29,134.8847198486328
2021-06-30,135.4231719970703
2021-07-01,135.6923828125
2021-07-02,135.0097198486328
2021-07-06,134.66355895996094
2021-07-07,135.5962371826172
2021-07-08,133.91358947753906
2021-07-09,135.7501220703125
2021-07-12,135.01931762695312
2021-07-13,133.17318725585938
2021-07-14,133.115478515625
2021-07-15,133.23085021972656
2021-07-16,133.69239807128906
2021-07-19,131.85586547851562
2021-07-20,131.7500762939453
2021-07-21,130.82699584960938
2021-07-22,129.490478515625
2021-07-23,131.00010681152344
2021-07-26,131.4616241455078
2021-07-27,131.50010681152344
2021-07-28,132.3558349609375
2021-07-29,133.70201110839844
2021-07-30,123.96163177490234
2021-08-02,124.91354370117188
2021-08-03,124.0456314086914
2021-08-04,122.25190734863281
2021-08-05,122.95590209960938
2021-08-06,123.85275268554688
2021-08-09,125.4439468383789
2021-08-10,124.59528350830078
2021-08-11,126.93870544433594
2021-08-12,127.9512710571289
2021-08-13,128.30812072753906
2021-08-16,128.14418029785156
2021-08-17,128.26950073242188
2021-08-18,127.34373474121094
